
[-0.591796875, -0.30859375, 0.76708984375]
[-0.61328125, -0.27197265625, 0.7431640625]
[-0.8232421875, -0.21044921875, 0.51806640625]
[-0.01220703125, -0.02490234375, 0.5537109375]
[-0.017578125, -0.07958984375, 0.96533203125]
[-0.87548828125, -0.46533203125, 1.1259765625]
[-1.16064453125, -0.21484375, -0.029296875]
[-0.0947265625, -0.00927734375, 0.90380859375]
[-1.03125, -0.47412109375, 1.09765625]
[-1.224609375, -0.17578125, -0.02197265625]
[-0.1982421875, 0.05615234375, 0.92236328125]
[-1.10302734375, -0.3662109375, 1.138671875]
[-0.68505859375, 0.01220703125, 0.40185546875]
[-0.85302734375, -0.095703125, 0.5859375]
[-0.75341796875, -0.1357421875, 0.61669921875]
[-0.779296875, -0.08349609375, 0.65869140625]
[-0.849609375, -0.06201171875, 0.623046875]
[-0.8212890625, -0.06103515625, 0.60791015625]
[-0.7373046875, -0.12890625, 0.591796875]
[-0.71875, -0.15185546875, 0.5751953125]
[-0.7021484375, -0.08447265625, 0.5517578125]
[-0.74951171875, -0.0263671875, 0.53466796875]
[-0.8759765625, -0.0126953125, 0.5400390625]
[-0.8740234375, -0.021484375, 0.54345703125]
[-0.8046875, -0.07666015625, 0.52783203125]
[-0.8349609375, -0.05859375, 0.546875]
[-0.9365234375, -0.00048828125, 0.54345703125]
[-0.94970703125, 0.02392578125, 0.50146484375]
[-0.87841796875, -0.02294921875, 0.48583984375]
[-0.90380859375, -0.00390625, 0.55224609375]
[-0.93408203125, -0.00927734375, 0.55322265625]
[-0.9580078125, -0.00048828125, 0.51611328125]
[-0.93701171875, -0.0068359375, 0.53662109375]
[-1.00146484375, -0.01806640625, 0.5966796875]
[-1.1025390625, 0.01220703125, 0.5947265625]
[-0.96435546875, 0.01318359375, 0.564453125]
[-0.9404296875, -0.02294921875, 0.5615234375]
[-1.0048828125, -0.0078125, 0.58447265625]
[-1.04345703125, -0.02490234375, 0.57177734375]
[-1.05224609375, -0.02392578125, 0.5146484375]
[-1.048828125, 0.0166015625, 0.50390625]
[-1.07666015625, 0.0810546875, 0.49169921875]
[-1.09619140625, 0.1162109375, 0.474609375]
[-1.12890625, 0.107421875, 0.46142578125]
[-1.1435546875, 0.07421875, 0.4501953125]
[-1.11767578125, 0.08984375, 0.41259765625]
[-1.10400390625, 0.12890625, 0.40576171875]
[-1.0927734375, 0.12939453125, 0.40087890625]
[-1.05615234375, 0.10888671875, 0.4150390625]
[-1.03955078125, 0.08056640625, 0.4013671875]
[-1.0224609375, 0.06591796875, 0.421875]
[-0.978515625, 0.06494140625, 0.41943359375]
[-0.96044921875, 0.05419921875, 0.42333984375]
[-0.96923828125, 0.02294921875, 0.427734375]
[-0.95263671875, -0.0146484375, 0.43359375]
[-0.92626953125, -0.06396484375, 0.4453125]
[-0.9052734375, -0.07373046875, 0.44921875]
[-0.91015625, -0.07275390625, 0.45654296875]
[-0.89990234375, -0.0849609375, 0.4833984375]
[-0.87939453125, -0.1142578125, 0.4765625]
[-0.84619140625, -0.13720703125, 0.4755859375]
[-0.80615234375, -0.1298828125, 0.47998046875]
[-0.79638671875, -0.1640625, 0.52587890625]
[-0.79443359375, -0.22119140625, 0.5625]
[-0.75537109375, -0.25537109375, 0.5927734375]
[-0.72412109375, -0.2744140625, 0.5869140625]
[-0.71630859375, -0.30126953125, 0.56591796875]
[-0.72412109375, -0.31787109375, 0.5693359375]
[-0.724609375, -0.3564453125, 0.59765625]
[-0.693359375, -0.3720703125, 0.6083984375]
[-0.63525390625, -0.333984375, 0.6259765625]
[-0.62158203125, -0.38330078125, 0.64990234375]
[-0.6279296875, -0.453125, 0.63916015625]
[-0.59814453125, -0.46142578125, 0.62548828125]
[-0.53173828125, -0.4482421875, 0.6298828125]
[-0.5244140625, -0.46728515625, 0.662109375]
[-0.521484375, -0.49072265625, 0.662109375]
[-0.4921875, -0.478515625, 0.64404296875]
[-0.48876953125, -0.529296875, 0.6455078125]
[-0.48779296875, -0.5390625, 0.67919921875]
[-0.46044921875, -0.54541015625, 0.681640625]
[-0.427734375, -0.53564453125, 0.7021484375]
[-0.46240234375, -0.5537109375, 0.734375]
[-0.4599609375, -0.60791015625, 0.73291015625]
[-0.41259765625, -0.609375, 0.71435546875]
[-0.39013671875, -0.564453125, 0.71240234375]
[-0.3994140625, -0.578125, 0.73193359375]
[-0.40869140625, -0.66064453125, 0.75390625]
[-0.3857421875, -0.70458984375, 0.76904296875]
[-0.34375, -0.6259765625, 0.7626953125]
[-0.35498046875, -0.62451171875, 0.76806640625]
[-0.3271484375, -0.68017578125, 0.7744140625]
[-0.27294921875, -0.65771484375, 0.77880859375]
[-0.24951171875, -0.65478515625, 0.78857421875]
[-0.24560546875, -0.71337890625, 0.78369140625]
[-0.18212890625, -0.67041015625, 0.7919921875]
[-0.1796875, -0.62841796875, 0.79150390625]
[-0.18115234375, -0.6787109375, 0.78466796875]
[-0.14306640625, -0.69140625, 0.78173828125]
[-0.15185546875, -0.70068359375, 0.78076171875]
[-0.1357421875, -0.71923828125, 0.787109375]
[-0.10302734375, -0.740234375, 0.798828125]
[-0.099609375, -0.69482421875, 0.79248046875]
[-0.08837890625, -0.69384765625, 0.7880859375]
[-0.0771484375, -0.71826171875, 0.8076171875]
[-0.08154296875, -0.70166015625, 0.79931640625]
[-0.07470703125, -0.67333984375, 0.7880859375]
[-0.041015625, -0.7568359375, 0.80517578125]
[-0.05224609375, -0.7978515625, 0.78857421875]
[-0.03564453125, -0.7421875, 0.77783203125]
[-0.02490234375, -0.71337890625, 0.8037109375]
[0.0078125, -0.69384765625, 0.82861328125]
[0.0361328125, -0.6513671875, 0.83544921875]
[0.0341796875, -0.6884765625, 0.81396484375]
[0.02880859375, -0.76171875, 0.78564453125]
[0.021484375, -0.8037109375, 0.80908203125]
[0.0205078125, -0.8037109375, 0.82470703125]
[0.0087890625, -0.72216796875, 0.798828125]
[0.02587890625, -0.68896484375, 0.794921875]
[0.03076171875, -0.69384765625, 0.77294921875]
[0.0322265625, -0.70703125, 0.76708984375]
[0.0107421875, -0.68408203125, 0.763671875]
[-0.03515625, -0.66650390625, 0.74462890625]
[-0.01123046875, -0.68994140625, 0.73193359375]
[0.0263671875, -0.71630859375, 0.71875]
[0.033203125, -0.73486328125, 0.74609375]
[0.01025390625, -0.701171875, 0.7578125]
[0.0478515625, -0.6572265625, 0.74658203125]
[0.0458984375, -0.65380859375, 0.77001953125]
[0.01513671875, -0.72607421875, 0.75927734375]
[0.033203125, -0.75341796875, 0.73193359375]
[0.0615234375, -0.73583984375, 0.75927734375]
[0.0458984375, -0.7177734375, 0.78759765625]
[0.0380859375, -0.7197265625, 0.79150390625]
[0.0556640625, -0.71484375, 0.77294921875]
[0.04443359375, -0.75537109375, 0.7548828125]
[0.0634765625, -0.74609375, 0.7470703125]
[0.0771484375, -0.72607421875, 0.7763671875]
[0.08349609375, -0.72216796875, 0.7939453125]
[0.08544921875, -0.734375, 0.796875]
[0.0849609375, -0.73583984375, 0.791015625]
[0.0625, -0.7509765625, 0.76806640625]
[0.0859375, -0.791015625, 0.763671875]
[0.083984375, -0.78955078125, 0.802734375]
[0.09130859375, -0.73583984375, 0.81787109375]
[0.09521484375, -0.724609375, 0.81787109375]
[0.09326171875, -0.74560546875, 0.7841796875]
[0.09619140625, -0.77490234375, 0.7880859375]
[0.083984375, -0.7958984375, 0.7939453125]
[0.0947265625, -0.7666015625, 0.826171875]
[0.07763671875, -0.73095703125, 0.82861328125]
[0.0673828125, -0.740234375, 0.828125]
[0.07421875, -0.74462890625, 0.80029296875]
[0.05810546875, -0.75634765625, 0.8134765625]
[0.02685546875, -0.7255859375, 0.8203125]
[0.03271484375, -0.72021484375, 0.83154296875]
[0.04833984375, -0.685546875, 0.84326171875]
[0.02294921875, -0.7060546875, 0.822265625]
[0.02001953125, -0.732421875, 0.82177734375]
[-0.00537109375, -0.69970703125, 0.80908203125]
[-0.0556640625, -0.69921875, 0.814453125]
[-0.05712890625, -0.69775390625, 0.8115234375]
[-0.08154296875, -0.6865234375, 0.8134765625]
[-0.0888671875, -0.62646484375, 0.80078125]
[-0.10546875, -0.58544921875, 0.80322265625]
[-0.1337890625, -0.6474609375, 0.8115234375]
[-0.15087890625, -0.6865234375, 0.818359375]
[-0.14404296875, -0.64306640625, 0.81005859375]
[-0.166015625, -0.548828125, 0.82958984375]
[-0.23828125, -0.5751953125, 0.8173828125]
[-0.25439453125, -0.6181640625, 0.806640625]
[-0.2451171875, -0.63427734375, 0.79296875]
[-0.26513671875, -0.59033203125, 0.81689453125]
[-0.30859375, -0.5849609375, 0.8486328125]
[-0.32080078125, -0.56005859375, 0.84228515625]
[-0.31298828125, -0.51416015625, 0.8095703125]
[-0.322265625, -0.5302734375, 0.81689453125]
[-0.3525390625, -0.57421875, 0.8125]
[-0.38427734375, -0.54833984375, 0.7998046875]
[-0.40380859375, -0.4970703125, 0.779296875]
[-0.3974609375, -0.42236328125, 0.751953125]
[-0.4091796875, -0.4189453125, 0.75244140625]
[-0.48291015625, -0.49169921875, 0.78857421875]
[-0.51953125, -0.53271484375, 0.79443359375]
[-0.513671875, -0.45458984375, 0.76416015625]
[-0.5224609375, -0.32568359375, 0.72265625]
[-0.5537109375, -0.33349609375, 0.755859375]
[-0.62109375, -0.447265625, 0.77490234375]
[-0.59765625, -0.4228515625, 0.75341796875]
[-0.57763671875, -0.33203125, 0.7421875]
[-0.6396484375, -0.287109375, 0.75]
[-0.728515625, -0.279296875, 0.724609375]
[-0.7265625, -0.27001953125, 0.6669921875]
[-0.6708984375, -0.2724609375, 0.669921875]
[-0.6943359375, -0.302734375, 0.64794921875]
[-0.7275390625, -0.2138671875, 0.638671875]
[-0.77685546875, -0.1572265625, 0.673828125]
[-0.8466796875, -0.228515625, 0.68896484375]
[-0.8388671875, -0.25244140625, 0.64501953125]
[-0.80322265625, -0.14892578125, 0.5869140625]
[-0.76220703125, -0.06640625, 0.58642578125]
[-0.80419921875, -0.09716796875, 0.5693359375]
[-0.8662109375, -0.146484375, 0.52783203125]
[-0.84716796875, -0.115234375, 0.52587890625]
[-0.82958984375, -0.0478515625, 0.55615234375]
[-0.83935546875, -0.0107421875, 0.54638671875]
[-0.86376953125, -0.02099609375, 0.50439453125]
[-0.896484375, -0.0361328125, 0.4638671875]
[-0.89599609375, -0.015625, 0.4580078125]
[-0.86279296875, -0.00634765625, 0.48388671875]
[-0.84228515625, -0.0224609375, 0.46923828125]
[-0.8759765625, -0.0107421875, 0.47705078125]
[-0.93017578125, 0.0205078125, 0.49755859375]
[-0.9638671875, 0.04443359375, 0.46728515625]
[-0.9169921875, 0.05224609375, 0.41650390625]
[-0.8671875, 0.0537109375, 0.40673828125]
[-0.900390625, 0.07958984375, 0.43798828125]
[-0.98388671875, 0.06689453125, 0.44580078125]
[-0.96484375, 0.03515625, 0.4345703125]
[-0.921875, 0.0693359375, 0.42431640625]
[-0.919921875, 0.1279296875, 0.42431640625]
[-0.9736328125, 0.11572265625, 0.40625]
[-0.98291015625, 0.06201171875, 0.3955078125]
[-0.9580078125, 0.06640625, 0.39892578125]
[-0.9580078125, 0.09912109375, 0.44287109375]
[-0.9423828125, 0.1025390625, 0.42578125]
[-0.9287109375, 0.130859375, 0.4052734375]
[-0.96484375, 0.12548828125, 0.41552734375]
[-0.98876953125, 0.12548828125, 0.41748046875]
[-0.91162109375, 0.0869140625, 0.40087890625]
[-0.8935546875, 0.08984375, 0.43603515625]
[-1.005859375, 0.1357421875, 0.44921875]
[-1.0361328125, 0.1513671875, 0.4580078125]
[-0.99609375, 0.125, 0.42431640625]
[-0.96533203125, 0.126953125, 0.42138671875]
[-1.01904296875, 0.177734375, 0.419921875]
[-1.0751953125, 0.169921875, 0.41796875]
[-1.05517578125, 0.13427734375, 0.41455078125]
[-1.0498046875, 0.125, 0.416015625]
[-1.05810546875, 0.1474609375, 0.41064453125]
[-1.091796875, 0.16943359375, 0.3974609375]
[-1.09228515625, 0.1845703125, 0.38916015625]
[-1.091796875, 0.20361328125, 0.3779296875]
[-1.09228515625, 0.18505859375, 0.384765625]
[-1.080078125, 0.1484375, 0.3935546875]
[-1.087890625, 0.166015625, 0.38720703125]
[-1.0693359375, 0.18701171875, 0.3681640625]
[-1.0478515625, 0.166015625, 0.35693359375]
[-1.06689453125, 0.13818359375, 0.365234375]
[-1.07373046875, 0.09033203125, 0.36962890625]
[-1.05126953125, 0.06982421875, 0.369140625]
[-1.01025390625, 0.087890625, 0.3720703125]
[-0.99365234375, 0.11181640625, 0.3740234375]
[-1.03173828125, 0.07568359375, 0.3818359375]
[-1.02587890625, 0.001953125, 0.36865234375]
[-0.97509765625, -0.03271484375, 0.388671875]
[-0.96240234375, -0.02783203125, 0.41259765625]
[-0.95263671875, -0.01806640625, 0.4111328125]
[-0.9462890625, -0.0302734375, 0.42724609375]
[-0.958984375, -0.1142578125, 0.45068359375]
[-0.947265625, -0.16552734375, 0.45654296875]
[-0.92529296875, -0.15771484375, 0.46044921875]
[-0.9111328125, -0.15234375, 0.490234375]
[-0.9248046875, -0.18505859375, 0.50732421875]
[-0.927734375, -0.21728515625, 0.4912109375]
[-0.8310546875, -0.21533203125, 0.4794921875]
[-0.75146484375, -0.22802734375, 0.5595703125]
[-0.7470703125, -0.345703125, 0.62939453125]
[-0.68994140625, -0.47119140625, 0.57080078125]
[-0.65966796875, -0.49169921875, 0.5419921875]
[-0.65283203125, -0.45068359375, 0.5615234375]
[-0.6005859375, -0.35400390625, 0.5556640625]
[-0.56787109375, -0.39794921875, 0.564453125]
[-0.5244140625, -0.521484375, 0.5703125]
[-0.44140625, -0.52734375, 0.55517578125]
[-0.373046875, -0.46923828125, 0.56982421875]
[-0.4306640625, -0.5224609375, 0.556640625]
[-0.4287109375, -0.5693359375, 0.55517578125]
[-0.3427734375, -0.5478515625, 0.53173828125]
[-0.337890625, -0.5419921875, 0.57958984375]
[-0.40966796875, -0.59033203125, 0.62646484375]
[-0.361328125, -0.5341796875, 0.6416015625]
[-0.28125, -0.60009765625, 0.64599609375]
[-0.27880859375, -0.671875, 0.67138671875]
[-0.30029296875, -0.69091796875, 0.7041015625]
[-0.24365234375, -0.54345703125, 0.7275390625]
[-0.26416015625, -0.58642578125, 0.76611328125]
[-0.20263671875, -0.6748046875, 0.7490234375]
[-0.12744140625, -0.66455078125, 0.73583984375]
[-0.1103515625, -0.6435546875, 0.80810546875]
[-0.13720703125, -0.68408203125, 0.82861328125]
[-0.0947265625, -0.75341796875, 0.79150390625]
[-0.05859375, -0.744140625, 0.77587890625]
[-0.046875, -0.76708984375, 0.8115234375]
[-0.060546875, -0.80712890625, 0.7978515625]
[-0.00390625, -0.794921875, 0.78564453125]
[0.0166015625, -0.75, 0.765625]
[0.01220703125, -0.72900390625, 0.75537109375]
[0.0361328125, -0.7705078125, 0.73779296875]
[0.06103515625, -0.81640625, 0.74755859375]
[0.09130859375, -0.71337890625, 0.74169921875]
[0.07763671875, -0.69140625, 0.7431640625]
[0.06982421875, -0.7939453125, 0.7294921875]
[0.09814453125, -0.81982421875, 0.7138671875]
[0.123046875, -0.7373046875, 0.69580078125]
[0.1279296875, -0.73583984375, 0.71826171875]
[0.13671875, -0.77392578125, 0.73779296875]
[0.138671875, -0.75439453125, 0.72509765625]
[0.1640625, -0.73876953125, 0.69921875]
[0.19873046875, -0.72021484375, 0.72998046875]
[0.18212890625, -0.72607421875, 0.7490234375]
[0.15234375, -0.724609375, 0.751953125]
[0.18017578125, -0.7529296875, 0.73876953125]
[0.19384765625, -0.794921875, 0.78564453125]
[0.15966796875, -0.7216796875, 0.798828125]
[0.15771484375, -0.6865234375, 0.78369140625]
[0.22119140625, -0.76318359375, 0.80712890625]
[0.2734375, -0.740234375, 0.78271484375]
[0.24951171875, -0.615234375, 0.8359375]
[0.14013671875, -0.55419921875, 0.79736328125]
[0.16796875, -0.7275390625, 0.79638671875]
[0.20849609375, -0.853515625, 0.81982421875]
[0.22412109375, -0.73486328125, 0.8603515625]
[0.20068359375, -0.69091796875, 0.89599609375]
[0.21875, -0.64013671875, 0.84912109375]
[0.21435546875, -0.6923828125, 0.82568359375]
[0.22509765625, -0.69140625, 0.8427734375]
[0.22412109375, -0.68798828125, 0.86474609375]
[0.24853515625, -0.62158203125, 0.8349609375]
[0.25732421875, -0.591796875, 0.798828125]
[0.2666015625, -0.5546875, 0.7724609375]
[0.25048828125, -0.46044921875, 0.744140625]
[0.2099609375, -0.408203125, 0.70703125]
[0.26220703125, -0.51611328125, 0.6298828125]
[0.345703125, -0.60888671875, 0.54443359375]
[0.36328125, -0.46142578125, 0.50341796875]
[0.31884765625, -0.24267578125, 0.5634765625]
[0.16943359375, -0.24462890625, 0.63818359375]
[0.12158203125, -0.6689453125, 0.60400390625]
[0.2021484375, -0.767578125, 0.51123046875]
[0.1796875, -0.60400390625, 0.55029296875]
[0.01806640625, -0.59423828125, 0.72265625]
[-0.12548828125, -0.88037109375, 0.72607421875]
[-0.22900390625, -0.92724609375, 0.72412109375]
[-0.2490234375, -0.75830078125, 0.7431640625]
[-0.2275390625, -0.7802734375, 0.88134765625]
[-0.33447265625, -0.94677734375, 0.9052734375]
[-0.3046875, -0.86865234375, 0.8642578125]
[-0.15576171875, -0.888671875, 0.82666015625]
[-0.15625, -0.90966796875, 0.81640625]
[-0.177734375, -0.943359375, 0.82177734375]
[-0.171875, -0.9345703125, 0.80615234375]
[-0.10302734375, -0.8203125, 0.78369140625]
[-0.00927734375, -0.81787109375, 0.77587890625]
[-0.01513671875, -0.88720703125, 0.794921875]
[-0.05078125, -0.9375, 0.74560546875]
[-0.021484375, -0.80078125, 0.76416015625]
[0.025390625, -0.76953125, 0.7529296875]
[0.0380859375, -0.8046875, 0.7744140625]
[0.01416015625, -0.865234375, 0.74609375]
[-0.01513671875, -0.869140625, 0.69921875]
[0.0126953125, -0.85107421875, 0.64990234375]
[0.0810546875, -0.82421875, 0.615234375]
[0.1396484375, -0.7744140625, 0.6396484375]
[0.09375, -0.7529296875, 0.69091796875]
[0.064453125, -0.78955078125, 0.68310546875]
[0.087890625, -0.83935546875, 0.6767578125]
[0.12060546875, -0.93310546875, 0.6982421875]
[0.10595703125, -0.93310546875, 0.7080078125]
[0.015625, -0.93505859375, 0.6875]
[-0.0234375, -0.92041015625, 0.6611328125]
[0.0244140625, -0.87890625, 0.6591796875]
[-0.0048828125, -0.83251953125, 0.63623046875]
[-0.056640625, -0.8212890625, 0.6259765625]
[-0.056640625, -0.89208984375, 0.60546875]
[-0.03759765625, -0.9521484375, 0.60693359375]
[-0.04541015625, -0.9326171875, 0.595703125]
[-0.06787109375, -0.8828125, 0.56787109375]
[-0.04443359375, -0.8681640625, 0.55615234375]
[-0.04833984375, -0.88525390625, 0.56396484375]
[-0.02685546875, -0.873046875, 0.57080078125]
[0.02685546875, -0.82958984375, 0.609375]
[0.0703125, -0.8134765625, 0.62353515625]
[0.04052734375, -0.82177734375, 0.62109375]
[0.02294921875, -0.81298828125, 0.6240234375]
[0.08544921875, -0.77783203125, 0.6044921875]
[0.16845703125, -0.7998046875, 0.61328125]
[0.2041015625, -0.8193359375, 0.6376953125]
[0.236328125, -0.78662109375, 0.66162109375]
[0.19384765625, -0.73046875, 0.64111328125]
[0.14990234375, -0.7470703125, 0.63525390625]
[0.11669921875, -0.818359375, 0.62939453125]
[0.1103515625, -0.837890625, 0.65771484375]
[0.14404296875, -0.80810546875, 0.654296875]
[0.14013671875, -0.79638671875, 0.68310546875]
[0.1337890625, -0.818359375, 0.70263671875]
[0.08740234375, -0.8623046875, 0.6640625]