[-16.0, 26.3125, -62.0]
[-8.5625, 9.6875, -57.375]
[-0.6875, 2.8125, -47.0625]
[-11.5, -15.6875, -34.0]
[-18.75, -24.6875, -22.875]
[-8.9375, -27.6875, -14.75]
[11.4375, -28.875, -6.25]
[12.3125, -28.625, 6.125]
[8.0, -25.875, 10.5625]
[-4.6875, -21.625, 12.75]
[-11.625, -16.3125, 12.4375]
[-6.375, -11.375, 10.125]
[-4.8125, -9.1875, 8.5]
[-11.1875, -3.25, 1.5625]
[-12.25, 7.875, -3.875]
[-12.6875, 11.4375, -4.25]
[-11.0625, 10.6875, -3.625]
[-11.9375, 10.0, -4.25]
[-11.25, 8.9375, -6.9375]
[-6.0, 6.9375, -8.6875]
[-3.875, 6.9375, -5.4375]
[-6.4375, 7.125, 1.1875]
[0.9375, 5.3125, 3.375]
[6.625, 2.4375, 2.1875]
[3.0, 1.25, 3.1875]
[1.375, 0.125, 4.8125]
[2.0, -1.9375, 5.1875]
[5.1875, -3.5625, 5.5625]
[7.9375, -2.1875, 5.375]
[9.75, -2.25, 4.8125]
[9.6875, -0.6875, 4.75]
[6.8125, 1.5625, 3.0]
[0.0625, 3.875, 0.6875]
[-2.625, 5.625, -0.1875]
[-0.5625, 8.1875, -0.5]
[2.0625, 9.5625, -1.1875]
[0.0, 9.5, -0.875]
[-2.9375, 9.6875, -0.3125]
[-3.3125, 10.1875, -0.25]
[1.75, 12.0625, 0.875]
[1.5625, 14.0, -0.3125]
[-1.0, 14.1875, -1.0625]
[-2.0625, 13.8125, -1.0625]
[-2.9375, 13.1875, -1.9375]
[-3.0, 12.1875, -2.0625]
[-4.125, 10.125, -1.6875]
[-2.875, 7.625, -2.375]
[-2.0, 5.9375, -2.9375]
[-4.5, 4.375, -3.4375]
[-3.875, 2.875, -3.4375]
[-3.3125, 1.0625, -4.0]
[-4.125, 0.5625, -3.0]
[-4.5625, 0.3125, -1.8125]
[-4.875, 0.9375, -0.8125]
[-3.4375, 2.3125, -0.125]
[-1.0, 3.1875, -0.75]
[-2.1875, 1.625, 0.25]
[-3.6875, -0.625, 1.5]
[-3.0, -2.0, 1.9375]
[-1.625, -2.375, 1.875]
[0.1875, -1.4375, 2.0]
[-0.6875, 0.8125, 0.625]
[-0.125, 1.8125, 0.5625]
[2.5625, 0.5625, -0.5625]
[4.3125, -0.875, -1.0625]
[2.125, -1.3125, -0.5625]
[0.1875, -0.6875, 0.0]
[4.5625, -0.75, -1.0]
[6.6875, -0.625, -1.375]
[4.3125, -0.25, -1.0]
[0.75, -0.125, -2.25]
[-1.875, -0.3125, -2.25]
[-2.4375, -0.75, -2.3125]
[-1.9375, -1.75, -1.1875]
[-2.25, -1.9375, -0.8125]
[-1.5625, -2.8125, 0.125]
[0.0, -3.375, 2.0]
[1.25, -3.75, 1.0]
[5.9375, -3.625, 1.3125]
[6.4375, -3.5, 2.0]
[2.6875, -3.25, 2.25]
[0.0, -3.375, 1.8125]
[-1.8125, -2.75, 1.6875]
[-3.125, -1.5625, 0.8125]
[-4.0625, -0.4375, 0.5]
[-2.6875, 0.25, 0.5]
[-2.5625, 0.3125, 0.625]
[-1.375, 0.3125, 0.625]
[3.3125, 0.0625, 0.0625]
[5.6875, 0.3125, 0.0]
[5.25, 0.3125, -0.5625]
[2.9375, 0.0, -0.4375]
[2.1875, -0.75, -0.125]
[2.9375, -0.75, -1.0625]
[0.6875, -1.1875, -0.625]
[-0.125, -0.5625, -1.0625]
[-0.125, -0.9375, -0.875]
[-0.4375, -0.8125, -0.625]
[0.625, -0.875, -0.5]
[2.1875, -1.1875, -0.875]
[1.625, -1.3125, -0.5]
[1.4375, -1.0625, -0.8125]
[1.125, -0.9375, -1.125]
[2.5, -0.8125, -2.125]
[2.875, -0.5625, -2.3125]
[2.5, 0.375, -2.5625]
[-0.1875, 0.3125, -2.5625]
[-1.1875, 0.5, -2.5]
[-1.0625, 1.5, -3.125]
[-1.1875, 0.6875, -3.25]
[-1.6875, 0.625, -4.25]
[-2.6875, 0.25, -4.875]
[-5.125, 0.875, -4.875]
[-6.1875, 1.375, -3.875]
[-4.125, 2.125, -3.25]
[-3.9375, 3.125, -1.125]
[-1.875, 5.5625, 1.9375]
[1.8125, 9.0, 5.5]
[4.9375, 11.8125, 9.25]
[4.0, 13.3125, 12.0625]
[1.25, 13.4375, 13.3125]
[1.875, 13.5, 14.1875]
[3.75, 14.125, 13.75]
[4.25, 14.0625, 12.625]
[6.75, 12.875, 11.375]
[9.8125, 10.6875, 10.875]
[7.875, 8.5, 8.9375]
[5.125, 6.5625, 7.25]
[2.0625, 5.125, 4.8125]
[-2.0625, 3.625, 1.8125]
[-4.375, 2.25, 0.0625]
[-6.125, 0.8125, -1.25]
[-7.625, 0.125, -2.75]
[-6.9375, -0.25, -3.3125]
[-8.125, -0.3125, -4.1875]
[-12.375, -0.6875, -4.375]
[-14.9375, -1.8125, -4.4375]
[-11.8125, -2.5625, -4.4375]
[-8.75, -2.75, -4.8125]
[-8.6875, -2.0, -4.3125]
[-8.375, -2.375, -2.9375]
[-6.4375, -2.125, -2.25]
[-4.375, -1.6875, 0.1875]
[-0.0625, -0.5625, 2.0]
[2.125, 0.3125, 2.5]
[2.0, 0.9375, 3.0625]
[0.5625, 1.6875, 2.5625]
[-1.375, 2.125, 1.375]
[-1.3125, 2.8125, 1.0]
[0.75, 3.0625, 0.875]
[0.4375, 3.375, -0.0625]
[-3.4375, 2.75, -0.4375]
[-3.4375, 2.375, -1.0]
[-1.6875, 1.875, -1.4375]
[0.3125, 0.5625, -0.6875]
[0.0, 0.5, -0.125]
[-1.25, -0.0625, 0.8125]
[-0.9375, -0.125, 2.5]
[-0.25, -1.625, 2.125]
[-0.4375, -1.9375, 2.5]
[2.25, -2.25, 2.4375]
[0.5, -1.75, 2.375]
[-2.6875, -1.6875, 2.75]
[-1.9375, -1.6875, 2.6875]
[-0.625, -1.8125, 2.0]
[0.8125, -1.375, 1.875]
[0.25, -0.5, 1.1875]
[-0.25, 0.1875, 1.125]
[-1.625, 0.6875, 0.875]
[-2.0, 1.125, 1.1875]
[0.125, 1.9375, 1.375]
[1.25, 3.125, 1.625]
[0.0, 3.75, 2.1875]
[0.6875, 3.4375, 2.6875]
[0.1875, 3.0, 2.4375]
[-0.625, 3.0, 3.0625]
[1.75, 3.0625, 3.5]
[2.0625, 3.25, 2.6875]
[0.625, 2.875, 2.625]
[0.5, 2.3125, 2.375]
[2.25, 1.75, 2.5]
[1.8125, 1.3125, 2.4375]
[1.8125, 1.1875, 2.125]
[2.0625, 1.5, 2.3125]
[2.4375, 2.0625, 2.625]
[0.9375, 2.0625, 2.375]
[0.6875, 2.3125, 2.25]
[0.5, 2.1875, 2.0625]
[1.375, 1.9375, 1.8125]
[0.5625, 2.5625, 1.8125]
[-0.5625, 2.5, 2.25]
[0.75, 2.1875, 2.25]
[-0.125, 2.4375, 2.25]
[0.0625, 1.625, 2.3125]
[3.5, 1.25, 2.1875]
[2.3125, 0.375, 2.25]
[-0.5, 0.25, 2.3125]
[1.125, 0.1875, 2.5]
[2.5625, 0.0, 2.5625]
[1.0625, 0.1875, 2.25]
[-0.125, 0.3125, 1.625]
[2.0625, 0.375, 1.9375]
[1.6875, 0.9375, 1.75]
[0.1875, 1.4375, 1.4375]
[-0.25, 2.6875, 1.4375]
[-0.0625, 3.1875, 0.375]
[1.25, 3.0, 0.8125]
[0.25, 1.0625, 1.0]
[2.9375, 1.0, 1.0]
[4.8125, 0.8125, 2.25]
[3.8125, 0.9375, 3.4375]
[2.5625, 0.875, 4.0625]
[3.4375, 0.8125, 4.875]
[5.0625, 0.75, 5.25]
[5.375, 0.25, 5.6875]
[5.5625, 0.1875, 5.9375]
[4.5625, 0.625, 4.9375]
[3.125, 1.5625, 3.875]
[2.6875, 2.125, 3.125]
[2.5625, 2.6875, 2.4375]
[2.125, 3.75, 2.0625]
[-0.0625, 6.375, 1.3125]
[-3.4375, 7.6875, -0.75]
[-5.0, 5.375, -0.75]
[-2.875, 3.125, -1.3125]
[0.125, 2.125, -1.5]
[1.125, 1.9375, -1.9375]
[-1.75, 0.5625, 1.25]
[-1.6875, 0.1875, -0.125]
[-0.3125, -0.125, 0.0625]
[2.875, -1.25, 1.25]
[1.1875, -0.9375, 1.0625]
[0.3125, -0.5625, 1.6875]
[1.0625, -0.5, 1.4375]
[1.8125, -0.875, 1.1875]
[1.125, -0.4375, 0.625]
[0.625, -0.625, 0.0]
[1.0, 0.8125, -0.3125]
[0.1875, 0.8125, 0.25]
[0.4375, 0.5625, 0.6875]
[0.75, 0.625, 0.4375]
[-1.375, 0.25, 0.1875]
[-0.6875, 0.625, 1.0]
[1.0625, 1.5, 0.75]
[-0.5, 1.1875, 1.1875]
[-0.875, 0.625, 1.5]
[0.4375, 0.125, 1.0]
[0.375, 0.125, 1.625]
[1.125, -0.0625, 1.5625]
[2.25, -0.5, 1.0625]
[2.0625, -0.5, 1.125]
[1.375, 0.125, 0.5625]
[0.625, 0.25, 0.125]
[0.875, 0.1875, 0.0625]
[1.0, 0.3125, -0.375]
[0.4375, 0.125, -0.0625]
[-0.5625, 0.125, -0.25]
[-0.625, -0.125, -0.1875]
[0.1875, -0.25, 0.0]
[-1.5, -0.75, -0.4375]
[-1.25, -1.625, 0.0625]
[0.4375, -1.875, 0.1875]
[2.4375, -1.875, 0.5]
[2.6875, -1.5625, 0.75]
[-0.6875, -1.5, 0.375]
[-0.75, -0.75, 0.375]
[0.1875, -0.25, -0.125]
[0.4375, 0.125, 0.0625]
[0.375, 0.625, -0.3125]
[-1.4375, 1.125, -0.5625]
[-4.5625, 1.5625, -0.5625]
[-2.125, 1.875, -0.3125]
[-0.1875, 2.125, 0.75]
[-0.4375, 2.0, 0.8125]
[-0.875, 1.3125, -0.1875]
[-3.9375, 0.625, -1.0625]
[-1.9375, 0.0, -1.3125]
[1.3125, 0.0625, -0.875]
[0.5, -0.25, -0.625]
[-2.1875, -0.375, -0.8125]
[-2.9375, -0.9375, -0.5625]
[-0.6875, -1.0, 0.875]
[0.75, -1.3125, 1.5625]
[0.875, -1.1875, 1.9375]
[1.0625, -1.625, 2.25]
[0.75, -1.375, 2.9375]
[0.625, -1.0625, 3.1875]
[1.5, -1.3125, 3.0]
[1.875, -1.625, 1.5]
[2.3125, -1.8125, 0.625]
[-1.3125, -1.375, -0.5]
[-2.625, -1.1875, -1.4375]
[-1.1875, -0.6875, -2.0]
[0.5, -0.1875, -1.8125]
[1.1875, 0.375, -1.25]
[-1.0625, 0.875, -0.5625]
[-1.75, 0.3125, 0.125]
[-0.4375, -0.1875, 0.9375]
[2.125, -0.3125, 1.8125]
[3.1875, -0.1875, 2.0]
[1.9375, -0.875, 1.6875]
[1.25, -1.4375, 1.25]
[1.6875, -2.0, 1.0]
[0.5, -1.9375, 0.4375]
[0.5625, -1.75, -0.1875]
[0.625, -0.9375, -0.375]
[0.0625, -0.375, -0.375]
[0.4375, 0.125, -0.375]
[0.3125, 1.0, -0.375]
[0.0625, 1.5625, -0.5625]
[-1.875, 2.0625, -1.0]
[-1.0, 1.375, -0.875]
[-0.8125, 1.8125, -0.25]
[-0.3125, 1.3125, 0.125]
[0.0, 0.125, 0.3125]
[-0.6875, -0.25, 0.8125]
[-0.6875, -1.1875, 1.0]
[0.5, -1.125, 1.3125]
[1.875, -1.0625, 1.25]
[1.875, -0.9375, 1.3125]
[1.9375, -1.125, 1.4375]
[1.625, -0.9375, 0.875]
[-0.1875, 0.375, 0.125]
[1.0, 0.8125, 0.4375]
[1.375, 1.6875, 0.375]
[-1.125, 2.1875, 0.3125]
[-1.9375, 1.625, 0.75]
[0.1875, 1.1875, 0.625]
[0.875, 1.5, 0.5625]
[1.5625, 1.0625, 1.3125]
[3.375, 0.625, 0.9375]
[2.125, 0.3125, 1.0]
[0.0, 0.625, 1.875]
[-0.25, 0.625, 1.6875]
[0.375, 0.8125, 1.5625]
[0.4375, 0.5625, 1.1875]
[2.5625, 0.3125, 0.6875]
[0.875, 0.75, -0.125]
[-2.0, 0.625, -0.375]
[-0.75, 0.5, -0.8125]
[-1.4375, 1.4375, -0.9375]
[-2.5, 1.0625, -0.375]
[-0.3125, 0.75, -0.3125]
[0.25, 0.0625, -0.375]
[1.0, -0.1875, 0.125]
[2.1875, -0.5625, 0.25]
[0.125, -0.1875, 0.0625]
[-1.375, -0.3125, 0.1875]
[0.8125, -0.375, -0.375]
[0.8125, -0.125, -0.4375]
[-1.0, 0.375, -0.375]
[-1.5, 0.3125, -0.4375]
[-0.875, 0.3125, -0.3125]
[-1.3125, 0.9375, -0.3125]
[-1.4375, 0.5625, 0.3125]
[0.3125, 0.25, 0.75]
[0.5625, 0.0625, 0.6875]
[0.3125, -0.0625, 0.6875]
[0.6875, -0.5, 0.1875]
[1.0, -0.4375, -0.0625]
[-0.3125, -0.0625, -0.4375]
[-1.4375, 0.3125, -0.0625]
[-0.3125, 0.25, -0.1875]
[0.875, 0.875, 0.1875]
[-0.5, 1.6875, 0.4375]
[-1.8125, 1.125, 0.9375]
[-1.5625, 0.625, 0.9375]
[-0.4375, 0.0, 0.6875]
[1.1875, -0.4375, 0.8125]
[1.9375, -0.5625, 0.4375]
[1.25, -0.625, 0.625]
[0.0625, -0.5625, 0.75]
[0.375, -0.1875, 0.3125]
[0.0, 0.125, -0.0625]
[-1.6875, 0.625, -0.3125]
[-1.0625, 0.8125, -0.375]
[-1.625, 1.375, -0.9375]
[-2.4375, 1.25, -0.375]
[-0.9375, 0.75, -0.25]
[0.1875, 0.375, -0.1875]
[0.625, 0.375, 0.25]
[0.0, 0.1875, 0.25]
[-0.0625, 0.0625, 0.5625]
[1.3125, -0.0625, 0.4375]
[0.9375, 0.6875, 0.375]
[-0.8125, 0.5, 0.375]
[-1.0, 0.4375, 0.4375]
[0.0625, 0.125, 0.3125]
[0.25, 0.5625, 0.0625]
[-0.4375, 0.1875, 0.25]
[-0.0625, -0.1875, 0.375]
[-0.375, 0.0625, 0.1875]
[-1.4375, 0.875, -0.25]
[-1.3125, -0.1875, -0.25]
[0.0, -0.75, -0.25]
[0.3125, -0.375, -0.3125]
[0.25, -0.0625, -0.25]
[-0.375, 0.0625, -0.375]
[-0.75, 0.125, -0.4375]
[-0.6875, 0.25, -0.5]
[-2.0625, 0.9375, -0.8125]
[-1.375, 0.625, -0.0625]
[-0.9375, 0.125, 0.1875]
[0.0625, 0.0625, 0.5625]
[0.3125, 0.3125, 1.125]
[-0.125, -0.1875, 1.0625]
[0.25, -0.5625, 0.6875]
[0.75, -0.6875, 0.0625]
[1.9375, -0.875, -0.375]
[0.9375, -0.1875, -0.375]
[-0.5625, 0.1875, -0.125]
[-2.5, 1.0625, -0.25]
[-3.4375, 0.8125, -0.0625]
[-2.125, 0.4375, 0.0625]
[-0.1875, 0.625, -0.25]
[0.5, 1.0, 0.0]
[-0.4375, 1.0625, 0.125]
[-0.8125, 1.0, 0.0625]
[-0.625, 1.125, -0.125]
[0.3125, 0.875, -0.25]
[-0.0625, 1.0, -0.1875]
[0.125, 0.5625, 0.125]
[-0.625, 0.8125, -0.375]
[0.1875, 0.5625, -0.375]
[1.5, 0.625, -0.375]
[1.375, 1.125, 0.125]
[-0.5625, 1.25, 0.4375]
[0.125, 1.0625, 0.4375]
[1.3125, 0.8125, 0.125]
[1.0, 1.0, -0.1875]
[-0.0625, 0.625, -0.5]
[0.5, 0.3125, -0.6875]
[-0.0625, 0.3125, -0.5625]
[0.625, 0.1875, -1.0]
[2.3125, 0.5625, -1.0]
[1.8125, 0.875, -0.3125]
[2.4375, 0.6875, -0.3125]
[1.5625, 1.125, -0.25]
[-2.0625, 0.5625, -0.3125]
[4.25, 1.875, -2.75]
[14.1875, 3.875, -8.9375]
[4.25, 4.625, -6.5]
[-1.9375, 0.3125, -3.5625]
[-5.9375, -4.25, -4.375]
[-9.0, -3.375, -7.875]
[-10.6875, -2.5, -6.5625]
[-11.3125, -3.25, -5.75]
[-14.0, -4.5625, -6.3125]
[-19.125, -7.0625, -5.125]
[-16.75, -8.8125, -4.0]
[-5.0, -7.125, -4.0]
[8.25, -6.5, -3.25]
[14.1875, -6.375, -4.25]
[11.75, -8.375, -3.5625]
[10.5625, -8.25, -2.5]
[8.6875, -6.5625, -2.9375]
[3.3125, -5.1875, -1.375]
[1.5625, -4.1875, -1.125]
[1.625, -1.875, -1.875]
[-1.9375, -0.9375, -0.75]
[-8.25, -1.4375, -2.125]
[-10.0, 2.875, -0.8125]
[-8.6875, 5.4375, -0.1875]
[-7.8125, 4.8125, 1.0625]
[-6.625, 0.75, 2.25]
[-4.125, -2.0, 3.6875]
[5.375, -3.9375, 2.8125]
[10.5625, -3.0625, 1.6875]
[7.375, -1.4375, 0.0]
[4.625, -2.4375, -0.1875]
[2.875, -3.0, -0.5]
[-0.0625, -2.5625, -1.625]
[-3.8125, -0.25, -1.875]
[-4.8125, 0.3125, -2.375]
[-5.5625, 1.0625, 1.4375]
[-6.875, 0.5, 3.0625]
[0.0, 2.125, 1.25]
[6.125, 2.5625, -0.625]
[6.75, 2.5, -0.125]
[6.9375, 0.875, -3.1875]
[7.4375, -1.25, -2.8125]
[8.0625, -1.1875, -0.8125]
[3.3125, -0.8125, -0.3125]
[1.625, -0.25, -1.4375]
[-0.375, 0.0625, 0.6875]
[-6.9375, -1.4375, 1.125]
[-4.3125, -0.4375, -0.5]
[-5.25, -1.125, 1.875]
[-7.875, 2.8125, 3.875]
[0.125, 4.5, -1.125]
[-3.875, 4.125, -1.125]
[-7.4375, 3.875, 0.1875]
[-2.1875, 1.375, -0.0625]
[6.125, -1.4375, 0.4375]
[6.5625, -2.5, 0.125]
[6.5, -2.875, -0.375]
[3.25, -3.25, -0.5]
[0.5, -2.625, -2.6875]
[2.6875, -0.25, -2.9375]
[4.0625, 2.75, -2.5625]
[1.75, 4.875, -2.25]
[-2.6875, 7.25, -2.9375]
[-7.5625, 7.875, -2.625]
[-7.3125, 7.8125, -4.0]
[-5.6875, 7.5, -3.625]
[-3.0, 6.3125, -2.0625]
[-1.625, 4.625, -2.75]
[-1.375, 3.875, -1.75]
[-2.75, 2.25, -1.3125]
[0.125, 0.875, -2.125]
[-0.75, -0.875, -2.125]
[0.0, -2.4375, -1.5625]
[3.25, -3.8125, -2.625]
[6.875, -5.4375, -2.875]
[10.8125, -5.5, -0.75]
[6.9375, -5.5625, 2.125]
[-1.375, -5.625, 3.8125]
[-4.1875, -3.5, 5.25]
[-1.5, -1.625, 5.4375]
[1.0625, -0.625, 5.875]
[0.5625, -0.375, 5.5]
[-0.8125, 0.375, 3.6875]
[-1.375, 2.0, 2.0625]
[-1.3125, 3.0625, 0.375]
[-3.0, 4.375, -0.5625]
[-4.875, 5.3125, -1.375]
[-5.1875, 5.4375, -1.5]
[-3.1875, 4.8125, -1.625]
[-2.375, 4.0625, -1.8125]
[-3.5, 2.625, -0.5]
[0.5, 1.25, 1.1875]
[3.0625, 0.625, 2.125]
[2.875, -0.1875, 2.625]
[4.0, -0.3125, 3.625]
[4.75, -0.5, 3.25]
[2.1875, 0.25, 2.5625]
[1.4375, 1.0, 2.6875]
[1.9375, 1.6875, 1.9375]
[-0.0625, 2.8125, 0.5625]
[-0.625, 2.75, -0.125]
[-1.5, 2.0625, -1.625]
[-4.0, 1.25, -2.125]
[-4.5625, 0.4375, -1.75]
[-2.0, -0.375, -1.5]
[-1.8125, -0.9375, -0.625]
[-1.625, -0.625, 0.125]
[-1.1875, -1.25, 0.1875]
[-0.0625, -1.875, 0.75]
[1.0, -0.1875, 0.125]
[2.125, -0.125, 0.0625]
[2.1875, 0.3125, 0.6875]
[0.4375, 0.6875, 0.3125]
[-1.5, 1.0625, -0.0625]
[-2.0, 1.5625, -0.1875]
[-2.75, 2.1875, -1.0]
[-4.6875, 2.0, -1.625]
[-3.5, 0.8125, -1.3125]
[0.1875, -0.125, -0.75]
[2.75, -0.5, -0.1875]
[2.3125, -0.625, 0.3125]
[0.1875, 0.3125, -0.125]
[-1.0625, 0.4375, -0.5625]
[-0.8125, 0.5, -0.6875]
[-1.3125, 0.875, -1.375]
[-2.5, 0.8125, -1.3125]
[-3.8125, -0.125, -1.25]
[-3.0, -0.9375, -1.0]
[0.5, -2.0, -0.125]
[0.75, -2.3125, 0.25]
[1.0, -3.0625, 0.875]
[2.3125, -3.375, 1.0625]
[0.625, -2.625, 0.5]
[0.375, -1.75, 0.3125]
[0.125, -0.6875, 0.0625]
[-0.125, 0.5, -0.125]
[-1.1875, 1.6875, -0.25]
[-2.5625, 2.25, -0.125]
[-1.3125, 2.25, -0.0625]
[-1.6875, 2.4375, 0.0]
[-3.125, 1.3125, 0.25]
[0.0625, 0.5, 1.125]
[2.6875, 0.5, 1.625]
[2.0625, -0.0625, 2.25]
[1.8125, -0.625, 2.3125]
[4.1875, -0.6875, 2.125]
[3.125, -0.125, 1.125]
[-0.1875, 0.4375, 0.25]
[0.75, 1.125, -0.9375]
[1.125, 1.9375, -1.6875]
[-2.0, 2.3125, -2.0625]
[-3.6875, 3.1875, -2.0]
[-4.5, 2.9375, -1.8125]
[-4.0625, 2.375, -1.0]
[-1.0625, 1.5, -0.4375]
[0.9375, 0.375, 0.5625]
[1.1875, -0.5, 1.0]
[1.0625, -1.0, 0.75]
[0.8125, -1.4375, 0.875]
[0.6875, -1.125, 0.625]
[0.875, -0.75, 0.25]
[0.0, -0.3125, -0.125]
[-1.0, 0.1875, -0.9375]
[-0.9375, 0.0, -1.25]
[-1.25, 0.3125, -1.1875]
[-1.6875, 0.75, -0.75]
[-0.5, 0.5, 0.125]
[-0.3125, 0.5625, 0.375]
[-0.375, 0.1875, 0.875]
[0.125, 0.0, 1.125]
[1.375, -0.0625, 1.1875]
[0.875, 0.0625, 1.25]
[0.9375, 0.0625, 1.1875]
[0.75, 0.5625, 0.875]
[0.0625, 0.25, 0.8125]
[0.8125, 0.75, 0.5625]
[-0.125, 1.125, -0.375]
[-3.1875, 0.75, -1.125]
[-4.9375, 0.25, -2.1875]
[-5.125, -0.375, -2.25]
[-4.625, -0.375, -2.5]
[-2.0625, -0.375, -6.125]
[-5.0, -2.3125, -3.6875]
[-6.6875, -3.8125, -0.375]
[-7.9375, -5.5, -0.6875]
[-7.375, -3.1875, 2.1875]
[5.75, -0.5, 2.0]
[2.5625, 0.3125, 7.375]
[0.875, 0.5625, 5.1875]
[2.25, 0.1875, 3.1875]
[4.375, 1.4375, 2.5625]
[18.75, 2.9375, -3.6875]
[21.375, 5.0625, -5.4375]
[7.5, 5.0, -1.875]
[-4.1875, 3.1875, -3.8125]
[-4.9375, 2.1875, -3.9375]
[-0.875, 0.875, -4.375]
[-1.375, 0.5625, 0.0]
[-6.0625, -0.25, -1.4375]
[-7.0625, -0.9375, -0.6875]
[-8.5625, -1.875, 1.125]
[-7.125, -2.625, 2.375]
[-2.9375, -1.75, 3.875]
[1.5625, -0.6875, 4.625]
[4.8125, -2.3125, 4.5]
[1.9375, -2.8125, 2.625]
[-3.1875, -1.4375, 3.1875]
[-4.6875, -1.5625, 3.125]
[-3.0625, -0.875, 1.8125]
[1.25, -0.375, 0.875]
[0.9375, 0.875, 0.875]
[-1.125, 1.875, 1.6875]
[-1.0625, 1.8125, 3.0625]
[1.8125, 2.3125, 4.0]
[3.125, 2.25, 4.1875]
[0.75, 1.0, 3.1875]
[1.25, 0.5, 1.125]
[2.4375, 0.3125, 2.25]
[1.6875, 1.625, 1.4375]
[-0.1875, 1.0625, 1.8125]
[-3.5, -0.125, 0.5625]
[-3.75, 0.5, -1.4375]
[-0.5625, -0.0625, -2.4375]
[-0.6875, -0.3125, -2.375]
[-0.5, -0.5, -0.9375]
[1.5, -0.5625, -0.875]
[1.0625, -0.6875, 0.0]
[-0.5625, -0.625, 0.5]
[-0.875, -0.3125, 0.625]
[-0.0625, -0.125, 0.375]
[3.5625, 0.1875, -0.375]
[4.5625, 0.3125, -0.375]
[2.4375, 1.0, -0.125]
[-0.875, 1.0, -0.6875]
[-2.25, 0.9375, -0.9375]
[-0.875, 0.6875, -0.875]
[0.9375, 0.3125, -0.8125]
[0.125, 0.3125, -1.1875]
[-3.4375, 0.0, -1.4375]
[-4.5, -0.4375, -1.3125]
[-3.375, -0.4375, -1.3125]
[-1.1875, -0.25, -1.125]
[2.25, -0.0625, -2.375]
[6.25, 0.3125, -3.3125]
[5.4375, 1.0, -3.375]
[0.8125, 0.4375, -3.125]
[-1.3125, 0.375, -3.0625]
[-3.25, 1.0625, -3.1875]
[-2.375, 0.3125, -2.25]
[-0.125, 0.375, -1.5625]
[2.875, 1.0, -2.0625]
[4.625, 0.625, -2.1875]
[2.5, 0.5, -1.6875]
[2.375, 1.0, -2.1875]
[0.5, 1.8125, -2.5625]
[-3.25, 1.0625, -2.125]
[-3.125, 1.9375, -2.8125]
[-3.0625, 1.9375, -2.6875]
[-3.5, 1.75, -2.5625]
[-5.1875, 1.0625, -2.9375]
[-4.875, 0.125, -2.0]
[-2.4375, -0.5625, -1.625]
[-1.3125, -0.625, -1.0625]
[-0.5, -0.75, 0.125]
[-0.25, -0.9375, 0.6875]
[0.875, -1.0, 0.125]
[1.6875, -0.1875, 0.5]
[1.0, 0.3125, 1.6875]
[0.1875, 0.3125, 1.75]
[-0.625, 0.3125, 2.3125]
[-0.3125, 0.4375, 2.25]
[0.4375, 0.5625, 2.25]
[-0.0625, 0.9375, 2.125]
[-0.75, 0.8125, 1.9375]
[-1.375, 0.75, 1.375]
[-2.1875, 0.5625, 0.5]
[-1.5625, 0.4375, 0.4375]
[1.1875, 0.3125, 0.125]
[0.375, 0.125, 0.5]
[-0.625, 0.125, 1.25]
[0.125, -0.0625, 1.3125]
[-0.5625, 0.75, 1.125]
[0.0, 0.5625, 1.375]
[0.5, 0.625, 1.25]
[1.0, 0.5625, 0.9375]
[1.0625, 1.0, 1.375]
[2.25, 1.1875, 0.5]
[-1.125, 1.5625, -0.6875]
[-1.875, 1.0, -0.625]
[0.3125, 1.0, -0.6875]
[0.0625, 0.9375, -0.6875]
[-1.6875, 0.9375, -0.375]
[-2.0625, 0.5, -0.6875]
[-1.875, 0.1875, -0.875]
[-2.1875, 0.125, -1.1875]
[-0.875, -0.75, -1.625]
[1.5, 0.0625, -0.5625]
[-1.875, 0.1875, -1.125]
[-7.0625, -4.3125, 0.8125]
[-1.25, 0.125, -1.0625]
[-0.4375, -0.8125, 0.0625]
[0.4375, -0.875, -0.875]
[0.1875, -0.6875, -0.75]
[2.6875, -0.5, -0.0625]
[2.0, -0.8125, 0.625]
[0.875, -1.9375, 0.5625]
[1.5, -2.25, 0.8125]
[1.625, -2.3125, 1.3125]
[6.375, -4.625, 1.75]
[3.5, 0.625, 1.375]
[5.4375, -1.6875, 0.9375]
[3.3125, -2.0, 1.875]
[-1.0, -2.4375, 0.625]
[1.5, -1.875, -0.4375]
[3.3125, -0.3125, -0.3125]
[4.4375, 0.5625, 0.1875]
[5.125, 1.125, 0.875]
[4.875, 1.125, 1.0625]
[3.875, 0.1875, 1.9375]
[2.0, -0.3125, 0.9375]
[0.6875, -1.1875, 0.625]
[-0.4375, -1.5, 0.6875]
[2.25, -0.875, 0.9375]
[4.6875, -0.4375, -0.125]
[4.75, -1.0, -0.4375]
[2.6875, -0.6875, 0.8125]
[0.5, -1.375, 0.9375]
[4.625, -0.75, 1.1875]
[6.75, -0.5625, 2.25]
[7.25, -0.5625, 1.1875]
[3.75, 0.625, 2.1875]
[2.5, 1.0625, 3.125]
[3.0, 1.5625, 3.3125]
[4.6875, 1.1875, 3.125]
[6.8125, 0.75, 2.625]
[6.0625, 0.3125, 2.875]
[1.8125, 0.125, 3.875]
[-1.6875, -0.0625, 3.375]
[0.375, 0.4375, 3.3125]
[5.0625, 0.625, 3.1875]
[6.9375, 0.0625, 2.0]
[2.0625, 0.5625, 1.1875]
[-6.0625, 3.25, 3.4375]
[-11.375, 6.75, 5.125]
[-5.5625, 9.5, 5.625]
[4.3125, 9.9375, 4.1875]
[4.25, 9.3125, 4.6875]
[-3.4375, 10.5, 8.375]
[-2.9375, 11.625, 9.625]
[7.6875, 8.875, 7.625]
[16.125, 5.0, 3.5625]
[6.9375, 2.1875, 3.625]
[-7.75, 0.5, 3.5]
[-9.25, -0.1875, 1.375]
[-2.875, 0.375, 2.0625]
[0.1875, 1.875, 1.75]
[-0.9375, 4.5625, 3.3125]
[1.375, 6.0, 6.8125]
[6.5, 6.3125, 6.5625]
[6.6875, 6.6875, 5.6875]
[3.4375, 5.8125, 6.1875]
[1.5, 3.3125, 7.0]
[0.6875, 1.125, 6.3125]
[0.5625, 0.75, 7.5625]
[4.25, -0.5625, 8.1875]
[6.8125, -0.1875, 5.8125]
[3.375, 0.75, 3.875]
[-1.3125, 1.1875, 6.6875]
[0.5625, 1.125, 8.8125]
[7.9375, 0.9375, 7.0]
[12.3125, -0.4375, 5.3125]
[14.125, -3.0625, 5.0625]
[6.625, -7.0, 4.0625]
[0.8125, -10.625, 4.8125]
[9.25, -15.25, 6.75]
[19.9375, -17.5625, 4.6875]
[24.5, -17.25, 2.4375]
[26.5, -18.75, 2.1875]
[23.25, -21.1875, -1.875]
[19.75, -23.75, -5.9375]
[19.4375, -25.75, -7.4375]
[23.875, -27.125, -10.125]
[30.0, -28.5625, -13.1875]
[30.375, -31.0625, -18.125]
[26.375, -33.625, -22.625]
[26.1875, -33.625, -22.875]
[26.0, -33.75, -25.125]
[31.1875, -34.625, -29.625]
[38.3125, -35.8125, -33.1875]
[40.5625, -36.75, -34.75]
[34.25, -37.125, -36.125]
[27.1875, -40.5, -39.625]
[23.0625, -42.375, -39.3125]
[18.8125, -41.25, -39.9375]
[21.4375, -41.625, -41.375]
[25.9375, -42.375, -44.5]
[28.75, -42.8125, -43.8125]
[29.9375, -47.9375, -42.875]
[33.375, -53.125, -42.5]
[36.125, -55.1875, -41.1875]
[35.125, -55.875, -40.125]
[34.625, -57.375, -40.75]
[34.5, -55.4375, -39.0625]
[42.0625, -50.75, -37.25]
[49.875, -43.6875, -32.8125]
[52.375, -37.8125, -27.3125]
[46.875, -35.375, -25.5]
[23.375, -32.0625, -11.75]
[-13.1875, -28.0, -8.75]
[-1.625, -19.9375, -19.0]
[44.375, -21.0625, -17.9375]
[70.5, -18.0625, -20.9375]
[50.125, -14.8125, -12.9375]
[13.0, -12.8125, -0.5625]
[6.9375, -9.25, -0.5]
[30.8125, -8.0625, -6.1875]
[60.4375, -5.75, -7.0]
[61.625, -3.6875, -3.1875]
[34.0, -3.875, 1.625]
[10.3125, -4.9375, 3.5]
[4.3125, -5.1875, 5.125]
[1.0, -0.75, 10.5]
[3.8125, 2.625, 11.5]
[-2.3125, 7.1875, 8.125]
[-0.4375, 8.6875, 8.125]
[-5.8125, 12.8125, 9.75]
[-20.5, 15.6875, 12.0625]
[-42.625, 15.4375, 17.25]
[-56.4375, 18.4375, 19.4375]
[-53.625, 20.9375, 18.375]
[-45.6875, 23.125, 17.4375]
[-53.0, 25.0, 19.875]
[-69.375, 26.875, 22.9375]
[-67.5625, 31.1875, 26.3125]
[-57.375, 38.3125, 28.25]
[-65.375, 42.9375, 31.75]
[-87.1875, 50.3125, 37.9375]
[-108.5625, 55.3125, 40.5]
[-119.375, 58.0625, 28.875]
[-121.3125, 60.3125, 13.75]
[-111.125, 59.5625, 2.5625]
[-88.5625, 55.5, 0.1875]
[-80.375, 48.875, -3.9375]
[-79.125, 48.375, -9.375]
[-84.5625, 46.625, -9.0625]
[-80.4375, 46.6875, -8.125]
[-74.0625, 39.6875, -6.75]
[-73.6875, 37.125, -10.1875]
[-65.125, 37.9375, -12.1875]
[-66.75, 26.0, -5.1875]
[-69.8125, 18.875, -5.9375]
[-62.8125, 21.0625, -2.125]
[-52.0625, 23.9375, 18.5]
[-31.3125, 26.0625, 17.0625]
[-26.0, 26.0, 10.375]
[-35.375, 26.875, 1.6875]
[-38.8125, 25.875, 3.75]
[-48.5, 24.125, 15.4375]
[-42.75, 19.625, 20.625]
[-26.5625, 14.625, 22.0625]
[-12.4375, 14.0625, 19.5]
[-10.9375, 16.0, 19.125]
[-23.8125, 16.125, 21.4375]
[-35.25, 11.0625, 19.375]
[-26.5625, -1.0, 16.4375]
[-24.875, -5.375, 21.3125]
[-42.4375, 5.625, 28.6875]
[-40.3125, 9.0625, 37.0625]
[-23.125, 8.75, 29.625]
[1.1875, 9.375, 22.25]
[12.1875, 7.4375, 19.5625]
[0.0, 5.8125, 16.5]
[-11.625, 7.75, 14.6875]
[-21.3125, 7.375, 10.0625]
[-17.25, 2.3125, 1.4375]
[5.5625, -1.1875, -2.4375]
[18.1875, -3.1875, -5.5]
[25.3125, 0.125, -5.4375]
[22.8125, 5.1875, 0.4375]
[20.8125, 7.6875, 3.75]
[15.8125, 5.0625, 2.375]
[21.375, 5.125, 1.0]
[24.75, 6.5625, -0.75]
[16.875, 9.0625, -3.6875]
[0.75, 12.625, -7.9375]
[-17.5625, 14.375, -12.6875]
[-23.6875, 12.3125, -15.6875]
[-9.625, 10.125, -16.8125]
[4.0625, 7.0, -17.4375]
[10.0, 8.9375, -16.9375]
[9.5625, 12.625, -11.0625]
[-2.5, 10.8125, -8.25]
[-9.875, 5.125, -11.3125]
[-6.375, 0.875, -10.5]
[3.9375, -0.4375, -6.5]
[9.625, -1.625, -2.0625]
[9.875, -6.5, -1.5]
[14.625, -6.875, -4.5]
[20.5, -5.125, -5.75]
[20.125, -4.1875, -5.5]
[15.375, -5.25, -3.1875]
[12.0625, -5.25, -1.75]
[11.3125, -5.1875, -3.6875]
[12.4375, -5.9375, -5.8125]
[14.6875, -6.0625, -7.875]
[14.0625, -5.625, -7.75]
[10.9375, -5.0, -9.625]
[7.9375, -1.625, -8.125]
[4.5625, -0.1875, -0.625]
[0.5625, 0.0625, -8.0]
[-0.8125, -0.4375, -13.375]
[2.625, -0.75, -13.25]
[3.5, -1.8125, -14.25]
[1.625, -5.0625, -10.6875]
[4.8125, -6.375, -9.625]
[4.375, -5.25, -11.875]
[-0.625, -5.1875, -10.5]
[-4.375, -4.4375, -9.125]
[-1.75, -2.625, -8.1875]
[5.5, -1.125, -6.5625]
[9.375, -0.3125, -4.8125]
[9.4375, -0.0625, -5.25]
[6.0625, 2.4375, -3.9375]
[4.1875, 1.0625, 0.0625]
[2.4375, -1.3125, -4.5625]
[-5.375, -2.5625, -9.0]
[-9.9375, -2.25, -6.125]
[-6.3125, -1.8125, -2.125]
[2.0625, -0.375, -5.25]
[11.875, 2.625, -7.625]
[16.1875, 0.8125, -5.8125]
[11.0625, -2.0625, -7.3125]
[-2.8125, -2.0, -8.8125]
[-9.4375, -2.8125, -7.4375]
[-6.4375, -1.5625, -5.5]
[-5.9375, -0.4375, -4.75]
[-9.5, 3.4375, -6.0]
[-9.5, 0.9375, -1.5]
[-1.8125, 0.625, -2.625]
[0.25, 1.3125, -3.9375]
[2.25, 1.8125, 0.125]
[7.1875, 1.4375, -1.25]
[8.0625, -1.3125, -4.375]
[8.0, -0.625, -1.8125]
[4.625, -3.8125, -0.8125]
[-0.25, -5.1875, -3.0]
[2.625, -7.875, -4.125]
[3.375, -6.1875, -4.6875]
[4.125, -2.375, -3.9375]
[2.75, -2.8125, -2.25]
[1.75, -0.25, -3.6875]
[1.8125, 0.3125, -5.6875]
[-0.6875, 1.6875, -7.0625]
[-4.8125, 1.5625, -6.9375]
[-6.375, 1.0625, -9.9375]
[-11.0625, 2.125, -6.75]
[-7.6875, 0.625, -3.875]
[-3.3125, 0.0625, -11.75]
[-3.625, -0.125, -11.6875]
[-8.625, -2.625, -7.75]
[-12.3125, -5.8125, -5.25]
[-7.8125, -6.9375, -6.125]
[6.1875, -6.375, -5.0625]
[12.5, -6.125, -4.25]
[8.75, -6.5625, -2.75]
[4.1875, -9.0, -0.875]
[2.875, -9.4375, 1.1875]
[5.4375, -10.875, 3.25]
[12.1875, -10.5, 2.4375]
[16.6875, -11.125, 1.0625]
[16.875, -11.25, -0.75]
[12.375, -10.625, -3.125]
[4.3125, -8.5625, -2.6875]
[-0.1875, -7.5625, -4.5625]
[-1.1875, -6.0, -8.875]
[1.625, -5.4375, -10.5]
[0.125, -5.0625, -12.0]
[-2.625, -5.0625, -13.8125]
[-3.1875, -5.25, -16.0]
[-2.625, -6.125, -19.25]
[-1.0, -9.625, -18.8125]
[1.75, -13.125, -16.3125]
[2.1875, -14.375, -15.3125]
[1.625, -15.875, -16.375]
[5.0625, -16.125, -18.125]
[7.75, -15.5625, -17.6875]
[9.875, -15.6875, -17.9375]
[11.25, -15.9375, -19.875]
[11.4375, -16.75, -21.0625]
[9.3125, -18.6875, -20.875]
[5.0625, -20.4375, -19.75]
[-0.0625, -22.4375, -21.25]
[-1.875, -22.8125, -21.75]
[2.25, -21.4375, -21.9375]
[8.25, -20.75, -21.9375]
[15.0, -21.75, -21.8125]
[19.125, -22.75, -20.25]
[16.9375, -23.8125, -19.5]
[16.3125, -24.875, -20.0]
[15.5, -25.3125, -20.5625]
[16.8125, -25.375, -18.5625]
[18.4375, -24.5, -16.0]
[23.875, -24.6875, -15.9375]
[28.5, -26.0625, -17.25]
[28.0, -25.8125, -17.9375]
[26.9375, -26.5, -15.1875]
[18.5625, -26.8125, -11.125]
[6.6875, -21.25, -7.625]
[-9.5, -19.6875, -5.875]
[-17.0, -17.6875, -3.9375]
[-9.9375, -14.8125, -6.5625]
[6.375, -9.5, -10.6875]
[19.9375, -9.1875, -10.25]
[22.4375, -7.0, -4.5]
[20.5625, -6.3125, 6.25]
[13.3125, -1.5625, 11.8125]
[6.75, 0.0625, 10.1875]
[11.75, 3.0625, 10.375]
[23.75, 3.375, 13.8125]
[30.9375, 1.6875, 18.75]
[43.1875, -0.125, 27.4375]
[52.625, -6.0, 40.8125]
[49.875, -7.125, 48.125]
[53.0, -12.125, 50.4375]
[63.9375, -15.0, 55.0625]
[67.125, -16.0625, 64.5]
[57.125, -19.4375, 73.0]
[51.5, -18.625, 71.1875]
[47.0625, -17.4375, 71.6875]
[43.4375, -19.0, 80.3125]
[35.375, -23.5625, 87.25]
[22.25, -18.8125, 78.9375]
[26.1875, -20.9375, 74.9375]
[32.1875, -25.0625, 76.5]
[17.875, -22.8125, 79.5]
[18.1875, -24.75, 86.6875]
[33.9375, -22.125, 80.875]
[54.8125, -13.8125, 68.1875]
[66.5, -1.875, 59.8125]
[69.4375, 15.75, 52.4375]
[45.8125, 25.75, 44.9375]
[17.625, 26.625, 33.125]
[-7.0, 17.0, 26.875]
[-15.75, 15.875, 22.5]
[5.0, 15.875, 14.1875]
[20.6875, 9.3125, 3.8125]
[16.8125, 0.75, -0.9375]
[5.375, -8.0625, -1.0625]
[-1.9375, -14.625, 1.125]
[4.625, -15.8125, 0.125]
[17.0625, -15.0625, -3.4375]
[24.3125, -11.0625, -10.5]
[19.6875, -5.8125, -16.5]
[6.5625, -2.1875, -16.8125]
[-9.125, -1.5, -14.5]
[-17.6875, -2.25, -12.875]
[-16.1875, -0.75, -12.5625]
[-7.5, 8.75, -9.875]
[-6.1875, 17.6875, -7.9375]
[-16.5, 20.25, -7.8125]
[-24.0, 16.25, -7.8125]
[-28.25, 8.5625, -8.4375]
[-29.6875, 2.8125, -8.3125]
[-26.6875, 1.25, -7.75]
[-24.0, 5.3125, -7.0]
[-24.625, 8.75, -9.625]
[-30.8125, 7.3125, -12.25]
[-38.125, 3.25, -10.9375]
[-41.6875, 2.75, -7.625]
[-39.75, 3.625, -5.6875]
[-32.5, 3.75, -5.625]
[-26.75, 3.8125, -5.875]
[-26.5625, 4.25, -6.0]
[-27.5, 4.25, -4.375]
[-30.5625, 3.75, -2.5]
[-35.125, 3.0625, -1.8125]
[-41.0625, 1.9375, -2.4375]
[-46.9375, 0.125, -1.8125]
[-46.25, -1.5, -0.625]
[-38.9375, -0.3125, 0.125]
[-30.875, 3.625, -1.0625]
[-26.1875, 5.125, 0.25]
[-20.0, 5.125, 0.0625]
[-7.125, 8.0, 1.25]
[4.0, 10.625, 1.5625]
[-2.8125, 12.1875, 4.0]
[-10.0, 10.1875, 6.5]
[-9.0, 9.8125, 8.0]
[-6.125, 11.625, 4.5625]
[-5.0, 11.25, 2.0]
[-7.8125, 8.1875, 4.25]
[-14.75, 4.25, 7.5625]
[-23.375, 3.1875, 7.0625]
[-28.3125, 3.1875, 3.6875]
[-22.9375, 4.125, 1.4375]
[-6.1875, 6.5625, -2.3125]
[11.5, 7.25, -4.4375]
[30.75, 8.25, -3.75]
[38.3125, 9.75, -4.5625]
[29.75, 9.5, -4.9375]
[10.8125, 8.5, -3.8125]
[-13.9375, 4.6875, -0.625]
[-31.8125, -0.4375, 0.5]
[-39.1875, -2.75, -1.9375]
[-34.625, 0.8125, -2.0625]
[-29.4375, 4.375, 2.0625]
[-16.6875, 5.3125, 4.625]
[-7.125, 3.375, 5.0]
[-0.75, 1.625, 5.375]
[0.875, -0.875, 6.0]
[-0.6875, -1.75, 7.125]
[-6.0625, 0.125, 6.625]
[-13.625, 0.9375, 4.4375]
[-17.8125, -0.5, 2.0625]
[-20.5, 0.1875, 1.0625]
[-18.125, 2.0625, 1.0625]
[-14.125, 4.5625, 2.8125]
[-7.9375, 6.1875, 2.75]
[-5.3125, 4.3125, 2.8125]
[-5.125, 1.125, 2.0625]
[-7.625, -1.5625, 0.875]
[-9.8125, -1.0625, 0.8125]
[-7.4375, 2.0, 1.5625]
[-3.375, 5.0, 3.5625]
[-1.125, 3.875, 4.25]
[1.875, 0.9375, 3.9375]
[1.25, -1.25, 3.5]
[-1.5, -2.375, 3.4375]
[-1.0, -1.1875, 3.9375]
[-1.0625, 0.0625, 4.8125]
[-1.875, -0.25, 5.75]
[-5.0625, -1.3125, 6.5]
[-7.3125, -1.25, 6.0]
[-9.875, 0.375, 5.625]
[-11.5625, 1.6875, 5.0625]
[-16.125, 2.25, 5.125]
[-19.25, 2.875, 5.3125]
[-18.875, 3.8125, 5.0625]
[-15.4375, 4.5, 4.375]
[-13.9375, 2.625, 3.875]
[-11.25, 1.625, 2.8125]
[-6.5, 2.9375, 2.375]
[0.1875, 4.125, 1.9375]
[4.625, 3.9375, 1.1875]
[4.5, 2.5, 2.0]
[2.625, 0.6875, 1.5625]
[0.1875, -1.4375, 0.375]
[0.125, -1.5, 0.0]
[-0.0625, -1.5, -0.25]
[-1.1875, -2.25, 0.0625]
[-0.375, -2.75, 0.375]
[-0.625, -3.375, 0.875]
[0.875, -3.1875, 1.25]
[5.5, -1.6875, 0.8125]
[4.6875, -0.5625, -1.125]
[2.4375, -1.8125, -1.1875]
[2.6875, -2.5, -2.0625]
[7.5, -2.0, -2.25]
[9.3125, -1.1875, -1.1875]
[7.0625, -1.375, 0.375]
[10.375, -3.1875, 1.4375]
[37.0, -9.0625, 3.9375]
[101.9375, -20.0625, 8.1875]
[212.625, -25.5, 16.6875]
[358.0625, -14.4375, 17.3125]
[456.125, 3.4375, 16.3125]
[382.0625, 1.5, 11.6875]
[195.25, 15.375, 5.75]
[34.1875, 32.5625, 20.875]
[-132.0625, 42.0, 16.3125]
[-157.125, 62.125, -18.5625]
[-30.625, 70.125, -16.375]
[109.75, 79.4375, 0.3125]
[186.0, 100.375, -5.375]
[172.8125, 114.375, -11.1875]
[91.625, 116.6875, -5.4375]
[10.5, 116.25, -5.125]
[-32.8125, 120.75, -9.6875]
[-30.75, 125.75, -12.3125]
[-8.25, 124.4375, -11.6875]
[27.6875, 123.0, -13.25]
[57.0, 124.0625, -16.6875]
[67.75, 122.9375, -19.375]
[55.9375, 118.125, -23.6875]
[41.75, 111.875, -29.0625]
[31.0, 104.75, -30.5625]
[28.1875, 99.0625, -32.0]
[34.9375, 93.8125, -33.125]
[39.375, 88.0625, -35.4375]
[44.375, 85.4375, -43.375]
[50.0625, 80.3125, -51.1875]
[52.8125, 75.375, -63.5625]
[44.125, 74.75, -74.1875]
[25.9375, 75.75, -85.125]
[14.375, 76.875, -86.375]
[-1.8125, 78.5625, -89.4375]
[4.4375, 86.125, -104.4375]
[25.875, 93.3125, -114.375]
[32.375, 98.5625, -116.0]
[11.4375, 104.875, -114.875]
[-9.3125, 114.625, -113.1875]
[-16.4375, 126.5625, -112.0625]
[-12.4375, 138.3125, -114.0625]
[-0.625, 143.9375, -107.6875]
[-4.625, 144.3125, -99.5]
[-25.3125, 144.1875, -100.4375]
[-36.5625, 150.5, -100.375]
[-31.0, 155.25, -95.875]
[-11.9375, 155.1875, -97.0625]
[7.375, 148.5, -99.625]
[22.375, 135.5625, -95.75]
[28.75, 122.3125, -93.9375]
[31.4375, 110.875, -93.9375]
[27.1875, 98.9375, -97.6875]
[24.5625, 83.25, -97.375]
[19.75, 70.9375, -85.625]
[8.125, 59.9375, -82.5625]
[-1.6875, 49.125, -83.1875]
[-5.25, 36.5625, -81.9375]
[3.625, 34.375, -68.8125]
[5.75, 31.75, -47.5625]
[-5.875, 28.1875, -45.5]
[-2.5625, 26.125, -42.5]
[8.0, 18.625, -38.75]
[6.75, 15.9375, -41.375]
[3.0625, 18.125, -39.5]
[1.5625, 19.0625, -32.125]
[-1.5625, 18.8125, -27.5]
[-3.375, 13.125, -24.8125]
[-5.0625, 3.0625, -19.875]
[-10.625, -5.3125, -16.0625]
[-9.5625, -11.25, -16.5]
[-6.3125, -16.0625, -17.3125]
[-3.9375, -19.8125, -15.5]
[-2.375, -22.6875, -13.75]
[-5.5625, -27.5625, -10.3125]
[-4.3125, -30.8125, -9.1875]
[-11.1875, -35.4375, -9.0625]
[-13.125, -38.4375, -10.9375]
[-10.5625, -36.625, -9.625]
[-12.0, -36.375, -7.0625]
[-22.25, -33.5, -5.5]
[-28.1875, -34.3125, -2.875]
[-29.9375, -39.625, -1.0]
[-26.5625, -47.1875, 2.1875]
[-26.125, -51.125, 4.25]
[-23.0625, -52.9375, 4.625]
[-17.1875, -60.25, 8.75]
[-19.25, -66.4375, 13.5]
[-20.25, -67.4375, 14.8125]
[-17.625, -69.875, 18.5]
[-15.0, -75.125, 26.6875]
[-12.375, -79.8125, 34.375]
[-10.3125, -89.625, 44.3125]
[-5.1875, -99.9375, 55.375]
[1.4375, -108.875, 67.125]
[13.5625, -116.4375, 75.875]
[23.5625, -121.375, 82.9375]
[35.0625, -122.3125, 90.75]
[38.5625, -118.75, 96.875]
[36.9375, -115.625, 101.0]
[40.6875, -113.0, 104.6875]
[40.3125, -101.6875, 100.5]
[30.25, -87.0, 93.3125]
[25.3125, -77.5, 91.4375]
[30.8125, -74.0625, 94.0]
[34.875, -73.5625, 95.9375]
[31.5625, -69.6875, 94.25]
[17.6875, -67.25, 91.9375]
[13.875, -70.9375, 95.5625]
[16.625, -74.4375, 101.25]
[16.4375, -73.8125, 96.9375]
[13.375, -68.375, 86.5625]
[14.625, -70.0, 84.125]
[8.875, -74.4375, 88.3125]
[8.125, -80.5, 97.8125]
[9.9375, -87.1875, 109.25]
[1.5625, -85.625, 108.4375]
[-6.25, -82.75, 99.5625]
[-4.375, -83.5625, 94.8125]
[19.6875, -86.3125, 100.875]
[37.8125, -85.3125, 109.8125]
[49.3125, -84.0, 113.5625]
[46.9375, -83.625, 119.0625]
[42.5, -73.625, 110.875]
[42.4375, -54.0, 91.9375]
[66.5, -31.5625, 76.9375]
[115.875, -14.4375, 71.9375]
[146.6875, -9.125, 78.75]
[117.0625, -16.5625, 82.5625]
[27.0, -33.25, 70.875]
[-54.375, -43.1875, 53.5]
[-76.5, -50.4375, 32.3125]
[-70.75, -58.0, 3.0]
[-53.4375, -61.0625, -22.625]
[-40.3125, -57.125, -41.5625]
[-35.375, -54.3125, -40.5625]
[-46.125, -53.875, -37.875]
[-52.0625, -50.125, -38.25]
[-44.875, -42.75, -16.3125]
[-26.9375, -24.0625, 10.6875]
[22.5, 6.5, 13.0625]
[56.8125, 29.0625, 9.0]
[62.75, 39.9375, 9.0]
[45.0, 43.1875, 9.5]
[7.625, 38.625, 9.8125]
[-13.3125, 36.3125, 5.4375]
[-11.1875, 32.8125, 2.5]
[-4.625, 28.0, 0.125]
[-3.1875, 23.875, -5.375]
[-5.0625, 15.4375, -8.25]
[-8.5625, 1.5625, -6.5]
[-13.6875, -6.375, -5.875]
[-10.0625, -9.125, -6.6875]
[-4.6875, -12.375, -10.875]
[-6.1875, -13.125, -17.0625]
[-9.0, -12.375, -16.5625]
[-11.5, -12.125, -12.0625]
[-7.75, -7.0625, -9.8125]
[-2.9375, 0.625, -11.625]
[3.8125, 11.1875, -14.8125]
[9.0, 19.625, -15.8125]
[8.375, 23.3125, -14.0625]
[7.0, 26.375, -13.75]
[5.0625, 26.75, -15.125]
[4.1875, 25.5625, -16.6875]
[1.5625, 20.9375, -16.5]
[-0.875, 16.125, -14.6875]
[-0.5, 11.0625, -12.5]
[0.9375, 5.75, -10.6875]
[2.875, 2.0, -8.3125]
[2.625, -0.6875, -6.4375]
[1.3125, -2.875, -5.0625]
[-0.3125, -5.125, -4.25]
[-1.8125, -4.625, -5.5625]
[-0.625, -2.0, -7.0]
[1.5625, 0.875, -6.75]
[2.3125, 2.375, -6.125]
[0.5, 5.375, -5.8125]
[2.5625, 8.3125, -6.25]
[6.0625, 10.0625, -7.875]
[2.9375, 10.9375, -8.8125]
[4.375, 11.3125, -8.125]
[4.1875, 12.0625, -6.9375]
[6.3125, 13.75, -6.5]
[6.5625, 14.3125, -7.5625]
[6.0, 13.375, -9.0]
[4.5625, 9.0, -7.3125]
[2.5, 8.0625, -7.9375]
[3.3125, 8.25, -9.0]
[4.9375, 6.25, -9.3125]
[6.9375, 5.0, -9.625]
[5.3125, 3.3125, -11.0]
[2.0625, 1.875, -11.5625]
[1.375, 1.875, -11.0625]
[1.625, 1.5625, -10.6875]
[6.0, 2.1875, -11.6875]
[5.25, 2.3125, -10.9375]
[4.1875, 2.25, -8.75]
[1.25, 2.5, -7.4375]
[2.25, 4.1875, -6.4375]
[5.625, 6.0625, -5.9375]
[7.25, 9.375, -6.9375]
[6.375, 10.9375, -5.9375]
[4.375, 12.0625, -5.9375]
[4.75, 12.25, -5.375]
[5.875, 11.75, -5.0625]
[4.4375, 11.375, -4.5625]
[4.3125, 9.875, -4.0625]
[3.6875, 8.875, -2.5625]
[3.0625, 5.9375, -1.3125]
[-0.375, 4.0625, -1.25]
[0.6875, 3.5, -0.875]
[0.6875, 5.3125, -0.5625]
[3.125, 6.375, 0.3125]
[3.125, 6.125, -0.125]
[2.0, 5.8125, -0.9375]
[1.25, 5.0625, -2.5625]
[0.625, 5.875, -4.0625]
[1.5, 7.8125, -3.5]
[3.9375, 8.0625, -3.375]
[5.8125, 6.5625, -5.0625]
[6.8125, 6.4375, -8.625]
[7.25, 5.0625, -12.0625]
[9.9375, 4.3125, -13.9375]
[14.1875, 2.8125, -13.375]
[15.9375, -3.3125, -14.625]
[25.0, -4.6875, -15.0]
[22.875, -5.8125, -11.5625]
[38.8125, -3.6875, -20.25]
[35.5625, -7.875, -23.8125]
[17.25, -37.4375, -31.75]
[-15.6875, -49.9375, -37.625]
[-21.0, -35.4375, -31.375]
[-4.875, -12.1875, -21.8125]
[19.8125, -2.5, -32.25]
[16.5, -5.0625, -43.875]
[-3.625, -10.375, -32.1875]
[-1.125, -13.5, -14.25]
[-0.875, -9.625, -8.3125]
[-4.125, -3.3125, -6.3125]
[-4.8125, -1.1875, -1.9375]
[-5.125, -1.375, 1.75]
[-5.9375, -3.875, 4.4375]
[-4.25, -8.0625, 6.4375]
[6.1875, -4.5625, 7.4375]
[16.6875, 18.125, 10.75]
[6.25, 27.75, 5.3125]
[-11.5, 20.5625, 3.375]
[-17.1875, 11.0, 4.25]
[-5.375, 0.875, 4.5625]
[6.125, -5.9375, 2.6875]
[-0.1875, -9.0, 2.625]
[-8.1875, -3.6875, 1.5]
[-7.3125, 4.375, 0.8125]
[-8.8125, 3.25, -0.25]
[-5.5625, -0.125, -0.75]
[-0.625, -3.3125, 0.25]
[-0.375, -6.1875, 1.4375]
[-2.0, -5.0, 2.0]
[-1.625, 0.625, 2.8125]
[-1.125, 3.75, 0.3125]
[-1.25, 0.625, -1.0]
[-2.375, -2.8125, -0.125]
[-1.1875, -2.8125, 0.75]
[2.1875, 0.75, -1.5625]
[3.25, 1.4375, -2.125]
[-3.375, 2.6875, -1.75]
[-3.375, 4.125, -0.625]
[-4.625, 1.9375, -0.8125]
[-2.1875, -3.625, -1.5625]
[-3.5625, -5.375, -0.3125]
[-3.5, -3.8125, -2.8125]
[-4.4375, -3.125, -2.0]
[-3.125, -4.125, 0.8125]
[-6.4375, -0.1875, -0.3125]
[-7.1875, 1.0, -0.8125]
[-4.75, -1.0, -1.8125]
[-9.5, -5.5625, -6.4375]
[-20.6875, -7.375, -13.0]
[-28.6875, -8.5625, -14.375]
[-33.625, -12.5625, -14.0625]
[-35.1875, -17.6875, -15.625]
[-36.375, -21.3125, -19.125]
[-37.4375, -22.4375, -21.75]
[-43.25, -24.375, -24.8125]
[-51.8125, -30.9375, -24.25]
[-67.8125, -38.125, -18.0625]
[-71.0, -41.0625, -14.375]
[-69.0625, -38.5625, -16.3125]
[-65.25, -29.9375, -21.1875]
[-60.75, -19.6875, -23.75]
[-67.8125, -16.125, -24.0625]
[-80.1875, -13.75, -29.8125]
[-84.0, -12.375, -30.75]
[-82.625, -16.9375, -16.4375]
[-84.0625, -13.625, -7.375]
[-83.4375, -4.75, -9.875]
[-84.8125, -0.3125, -15.5625]
[-83.375, 1.6875, -19.8125]
[-83.25, 1.625, -20.8125]
[-82.5, 3.125, -23.6875]
[-89.875, 0.1875, -27.625]
[-90.5, -2.375, -27.8125]
[-80.4375, -9.6875, -12.25]
[-77.0, -12.5, 3.125]
[-73.375, -12.5625, 14.25]
[-71.1875, -14.25, 24.6875]
[-60.8125, -24.6875, 34.4375]
[-46.3125, -35.4375, 40.25]
[-40.875, -37.8125, 42.5625]
[-40.375, -36.25, 43.25]
[-40.0, -34.25, 35.5625]
[-28.625, -37.75, 26.25]
[-28.625, -46.1875, 20.8125]
[-30.3125, -49.3125, 15.75]
[-23.0625, -47.625, 13.5]
[-7.25, -42.6875, 5.6875]
[8.8125, -42.625, -5.375]
[18.6875, -43.75, -4.0625]
[8.0, -37.375, -2.4375]
[-7.6875, -29.0625, -4.625]
[-2.875, -21.75, -11.5625]
[13.375, -15.4375, -6.25]
[21.6875, -13.1875, 8.75]
[19.8125, -17.875, 21.625]
[15.1875, -18.1875, 20.6875]
[10.1875, -17.1875, 15.875]
[14.8125, -17.625, 12.375]
[16.9375, -13.125, 10.75]
[11.5625, -8.75, 7.25]
[15.5625, -5.75, 9.875]
[2.25, 1.1875, 3.5]
[-13.0625, 1.4375, -10.8125]
[-5.6875, 0.625, -12.5]
[6.625, -0.3125, -6.125]
[-2.0625, -3.0, -5.125]
[-19.0625, -4.6875, -6.375]
[-26.3125, -6.3125, -9.5625]
[-21.8125, -6.1875, -7.0625]
[-7.8125, -7.25, -1.875]
[8.9375, -2.25, 3.3125]
[1.9375, 7.0, 4.6875]
[-5.0625, 11.125, -1.25]
[2.3125, 13.0, -2.125]
[13.0, 17.5625, 1.625]
[23.75, 15.9375, 3.125]
[21.25, 15.625, 4.8125]
[14.4375, 18.5625, 1.375]
[2.375, 17.3125, -2.8125]
[-2.0, 14.25, -2.0]
[4.0, 10.125, -2.1875]
[0.3125, 6.25, -7.0]
[0.4375, 8.0, -9.0]
[-13.75, 2.6875, -9.5625]
[-15.375, -6.3125, -5.1875]
[-11.8125, -11.375, 0.1875]
[-2.1875, -10.375, 0.3125]
[-6.8125, -7.875, -5.0625]
[0.5625, 1.1875, -1.5625]
[6.9375, 10.4375, -0.5]
[16.3125, 15.6875, -0.3125]
[15.5, 15.0, -2.6875]
[10.6875, 10.5625, -0.25]
[-7.4375, 7.125, 2.5625]
[-6.0, 0.875, 1.5]
[6.1875, -2.3125, 1.6875]
[13.0, -0.4375, -0.5]
[3.3125, -1.5, -7.0625]
[-7.625, -7.0625, -6.9375]
[-12.25, -11.1875, -3.8125]
[-8.0, -13.8125, -2.3125]
[-2.3125, -12.875, -0.75]
[4.25, -6.4375, 2.0]
[7.3125, 6.3125, -3.6875]
[6.3125, 10.375, -7.1875]
[5.3125, 7.5, -4.4375]
[1.875, 6.5, -3.0625]
[0.75, 7.375, -3.0]
[2.8125, 4.4375, -0.125]
[3.875, -1.5, -0.8125]
[0.3125, -2.25, -5.125]
[-3.8125, -2.0, -7.4375]
[-5.4375, -1.5, -7.0]
[-5.875, -0.6875, -5.0625]
[-4.0625, -0.3125, -1.9375]
[-0.3125, -0.75, 2.5]
[-3.9375, -4.375, 0.5]
[-7.25, -10.4375, -3.3125]
[-7.75, -5.6875, 0.6875]
[0.375, 2.5625, 2.625]
[0.875, 5.6875, 0.0625]
[6.4375, 6.5, 0.625]
[9.75, 5.3125, 3.125]
[7.6875, 8.6875, 3.875]
[6.75, 7.0625, 1.9375]
[7.5, 3.375, 3.8125]
[5.0625, -1.5, 2.625]
[-0.125, -3.6875, -1.125]
[0.6875, -3.5, -3.25]
[-2.3125, -3.4375, -2.4375]
[-6.5625, -4.875, -0.4375]
[-8.75, -3.9375, 0.0]
[-3.5625, -0.375, -1.5]
[4.3125, 5.0, -2.75]
[5.9375, 6.375, -2.625]
[1.125, 2.8125, 0.5]
[-3.625, 7.125, 0.125]
[-1.875, 11.9375, -3.125]
[6.8125, 7.375, 0.0625]
[2.9375, 4.0625, 0.3125]
[-1.0625, 0.0625, -1.1875]
[-3.4375, -1.875, -0.6875]
[-6.125, -2.6875, 0.875]
[-5.4375, -4.75, 1.875]
[-1.5625, -5.125, 1.4375]
[-2.75, -4.875, 2.0625]
[-3.875, -3.5625, 1.0]
[-4.125, -2.1875, -0.5]
[0.5625, -0.5625, 0.4375]
[3.125, 2.375, -0.875]
[1.625, 2.375, -1.25]
[-1.25, 1.0625, -0.875]
[-2.9375, 0.25, -0.3125]
[-0.75, 2.0, 0.4375]
[0.4375, 3.375, -0.75]
[-2.375, 3.0625, -0.9375]
[-3.25, 1.875, -0.375]
[0.5, 2.1875, 1.5625]
[6.6875, 2.0, 3.25]
[7.75, 2.5, 2.25]
[6.4375, -0.25, -0.125]
[3.0625, -1.125, -0.8125]
[-0.0625, -3.0625, 0.3125]
[-1.8125, -1.3125, -1.0625]
[2.6875, -0.1875, -1.625]
[5.125, -0.6875, -3.25]
[5.6875, -0.6875, -3.25]
[0.5, -1.0625, -0.75]
[-4.4375, -0.625, -1.6875]
[-4.5, -0.625, -1.625]
[-0.3125, -0.1875, -1.1875]
[0.4375, 0.75, -0.5625]
[-1.8125, 2.3125, -1.0]
[-6.125, 3.3125, -1.375]
[-7.5, 3.25, -1.0]
[-5.0625, 2.75, -1.0625]
[-3.0, 1.3125, -1.1875]
[0.3125, 1.8125, -1.5]
[-1.3125, 3.5, -1.1875]
[-4.3125, 2.5625, 0.625]
[-6.0625, 1.75, 1.3125]
[-3.0, 1.4375, 0.625]
[1.6875, 1.5625, 1.375]
[2.5625, 1.1875, 2.3125]
[-1.625, 0.875, 1.9375]
[-5.875, 1.125, 2.3125]
[-3.4375, 1.5, 2.0625]
[-0.1875, 1.9375, 0.375]
[0.9375, 1.8125, 1.125]
[0.1875, 0.5, 1.0]
[-0.3125, -2.0, 3.4375]
[-0.8125, 0.625, 1.6875]
[0.0625, -0.5, 3.125]
[2.0, -2.0, 4.3125]
[4.1875, -5.8125, 10.0]
[10.6875, -4.5625, 12.9375]
[8.75, -3.625, 9.5625]
[5.4375, 0.75, 2.0]
[3.75, 1.25, 1.1875]
[4.8125, -2.125, 2.375]
[-6.5625, -5.25, 2.9375]
[-10.4375, -7.25, 1.9375]
[-4.0625, -5.3125, 1.25]
[1.1875, -5.0, -3.4375]
[5.125, -3.8125, -7.1875]
[5.75, -1.0625, -8.375]
[-0.25, -1.625, -5.0]
[-4.1875, 0.1875, -2.3125]
[-8.6875, 0.0625, 0.875]
[-9.375, 1.1875, -0.625]
[-5.125, 1.25, -3.0625]
[1.5, -1.3125, -0.8125]
[4.625, -3.4375, 0.625]
[1.375, -4.0, 0.5]
[-2.25, -3.4375, 1.0]
[-3.375, -2.875, 1.75]
[0.875, -2.0, 1.0]
[5.0, -1.625, 0.9375]
[8.4375, -2.875, 1.375]
[8.875, -3.8125, 2.375]
[6.625, -1.8125, 2.5625]
[4.875, -0.9375, 1.4375]
[10.875, 2.125, 8.1875]
[-1.75, 0.375, -0.5]
[7.6875, -0.75, -2.125]
[8.75, 3.1875, 1.5]
[-0.1875, 3.75, -5.3125]
[-8.5, -0.375, -5.125]
[-5.625, -1.875, -2.0]
[4.1875, 1.0625, -4.0625]
[-0.5, 2.4375, -3.375]
[-2.375, 2.6875, -4.1875]
[-1.8125, 2.25, -2.3125]
[1.9375, 3.25, -2.1875]
[0.125, 4.0, -2.8125]
[-1.125, 6.375, -3.3125]
[-0.625, 3.875, 1.125]
[-4.75, 2.0, 0.0625]
[-5.5625, 3.375, -2.0625]
[-1.375, 3.75, -2.3125]
[2.5625, 3.375, -0.5625]
[2.3125, 2.5, 0.4375]
[-0.4375, -1.375, 1.375]
[-2.6875, -3.0625, 2.25]
[0.6875, -1.6875, 4.3125]
[3.25, -4.25, 2.5]
[4.6875, -3.0625, 1.0]
[-1.125, -3.1875, 1.0625]
[-2.1875, -0.4375, 0.3125]
[1.3125, 1.0625, -0.75]
[2.4375, 1.375, -1.125]
[-1.25, 1.375, -2.5625]
[-3.3125, 1.3125, -2.625]
[-4.0, 0.75, -2.9375]
[-2.6875, 0.8125, -2.375]
[0.3125, 0.4375, 1.1875]
[2.9375, 2.375, 1.0]
[1.125, 3.9375, 0.3125]
[-0.5, 1.6875, 0.8125]
[-1.625, 0.6875, -0.125]
[-2.8125, 0.0, -0.5]
[-1.0, -0.6875, 0.1875]
[-1.0, -0.4375, -1.0625]
[-1.0625, -2.0, 0.0625]
[2.0625, -1.0625, 0.25]
[0.1875, 2.5, -3.375]
[-4.0625, 3.0625, -1.125]
[-8.75, 1.375, -1.8125]
[-4.125, 0.1875, -1.3125]
[2.6875, -1.3125, -1.0]
[3.25, -0.1875, -1.8125]
[-0.25, 1.75, -2.1875]
[-2.625, 1.625, -0.5]
[-3.0625, 1.1875, -1.5]
[-1.75, 0.9375, -2.25]
[0.375, 0.75, -1.3125]
[-0.5, 1.0, -1.0]
[-2.875, 1.75, -1.5]
[-2.375, 2.875, -1.8125]
[-1.75, 2.875, -1.8125]
[-0.25, 1.8125, -1.9375]
[-2.0625, 0.3125, -1.4375]
[-2.875, -1.4375, -0.3125]
[-4.1875, -3.0, 0.1875]
[-3.5, -2.8125, -0.0625]
[-1.0, -3.3125, 0.0625]
[-0.375, -3.8125, 0.0]
[1.9375, -0.4375, 0.25]
[2.8125, -0.3125, 0.0625]
[0.9375, 0.625, 0.6875]
[4.0, 6.5, 1.0625]
[1.75, 7.75, 1.1875]
[-0.1875, 7.5625, -0.5625]
[-1.0, 6.3125, -0.5625]
[3.0, 5.125, 0.5]
[2.375, 3.625, 0.3125]
[1.625, 4.625, -2.375]
[1.375, 4.6875, -3.4375]
[-4.75, 4.5625, -2.25]
[-8.125, 3.0625, -3.625]
[-5.5625, 3.25, -4.375]
[-1.5625, 1.6875, -2.75]
[0.3125, -0.25, 0.125]
[-3.1875, -4.6875, 2.5625]
[-4.75, -9.1875, 0.875]
[-2.125, -3.125, -1.6875]
[0.625, 1.0, -2.0]
[0.375, 2.375, -0.1875]
[-3.375, 1.875, -0.3125]
[-7.0625, 0.1875, -0.125]
[-3.75, -1.6875, -0.375]
[3.1875, 1.875, -3.3125]
[2.25, 3.9375, -2.0625]
[-5.4375, 2.3125, -0.5]
[-8.625, 1.9375, -0.125]
[-3.1875, 1.875, 0.25]
[2.125, 1.6875, 0.75]
[2.25, 0.8125, -0.75]
[-0.625, -0.3125, -0.6875]
[-3.3125, -2.3125, -0.1875]
[-2.1875, -2.6875, 0.25]
[1.625, 0.0625, 0.6875]
[-1.125, 1.125, -0.1875]
[-2.75, 1.4375, -1.0625]
[-1.625, 0.0625, 0.3125]
[1.25, -1.5, 0.375]
[0.25, -2.3125, -0.25]
[-2.5, -3.25, -0.5]
[-2.0, -0.6875, 0.25]
[0.375, 1.125, -1.4375]
[0.4375, 0.625, -1.25]
[-1.0, 0.5, -1.0]
[-1.8125, -1.25, 0.9375]
[0.75, -2.0, 0.6875]
[-0.9375, -2.0, 0.1875]
[-0.375, -0.625, -0.0625]
[-1.0625, -1.0, 0.6875]
[-0.9375, -1.6875, 0.5625]
[0.3125, -1.6875, 0.3125]
[0.875, -1.0, -0.0625]
[0.3125, -1.625, -0.625]
[0.375, -0.8125, 0.5625]
[0.375, -1.375, 0.8125]
[0.0, -2.0, 0.625]
[0.375, -0.75, 1.375]
[1.1875, -1.25, 0.625]
[-0.75, -1.9375, 0.6875]
[-0.625, -1.1875, 0.375]
[1.25, -0.0625, 0.125]
[1.0, -0.4375, -0.5625]
[-0.3125, -0.375, -0.8125]
[-0.6875, -1.0625, 0.375]
[0.375, -1.4375, -0.75]
[1.125, 0.0625, -0.875]
[-0.125, 0.5625, -1.0625]
[-3.6875, 0.1875, -1.25]
[-3.5625, -0.25, -0.625]
[-0.25, -0.4375, -0.0625]
[1.875, 0.25, 0.0]
[-0.125, 0.5625, 0.125]
[-1.1875, 0.0, 0.125]
[-0.5, -0.4375, 0.8125]
[1.0625, -0.625, -0.1875]
[1.5, -0.8125, -0.625]
[0.4375, -1.3125, -0.3125]
[-0.375, 0.5, 0.3125]
[-1.0, 0.5, -0.4375]
[-1.1875, 0.4375, -1.0625]
[-1.375, 0.75, -1.5]
[1.125, 1.5, -0.9375]
[0.6875, 1.0625, -1.375]
[-1.1875, 1.1875, -1.5625]
[-0.8125, 1.375, -0.9375]
[0.75, 0.75, -1.3125]
[0.9375, 0.5, -1.4375]
[0.0, 0.125, -0.6875]
[-1.0625, -0.25, -0.125]
[-1.25, -0.3125, 0.0]
[-0.3125, -0.3125, -0.4375]
[0.3125, -0.1875, -0.8125]
[0.5625, -0.375, -0.5625]
[1.0625, 0.75, 0.5625]
[-0.125, 1.25, 0.8125]
[0.5, -1.9375, -0.125]
[6.8125, -4.375, 1.0]
[-6.5625, -5.375, 0.875]
[-4.4375, -3.25, 1.8125]
[5.3125, -1.3125, -3.375]
[10.75, -0.875, -3.375]
[5.5625, 0.375, -2.75]
[-7.75, 0.6875, -2.0625]
[-8.8125, 1.0625, -1.25]
[-2.1875, 2.0, -1.75]
[3.8125, 1.9375, -2.0625]
[3.25, 0.875, -2.5625]
[0.0625, 0.0625, -1.25]
[-1.625, -0.625, -0.25]
[-1.1875, -2.0, -0.5625]
[1.3125, -2.625, -1.0]
[3.4375, -1.3125, -1.3125]
[1.6875, -1.625, -1.375]
[-1.0, -2.75, -0.875]
[-1.6875, -2.4375, -1.6875]
[-3.5, -3.9375, -1.875]
[-3.5625, -6.3125, -3.8125]
[-2.875, -8.4375, -4.4375]
[-0.125, -10.5625, -5.375]
[0.9375, -10.4375, -6.375]
[-0.375, -12.1875, -5.875]
[-1.375, -13.0, -6.75]
[-1.3125, -13.125, -7.375]
[0.5625, -14.1875, -7.0]
[3.3125, -14.5625, -7.875]
[7.3125, -15.0, -9.125]
[13.8125, -14.125, -8.875]
[15.1875, -11.4375, -6.8125]
[10.875, -9.6875, -7.4375]
[7.0, -9.1875, -7.9375]
[3.0625, -9.5625, -9.25]
[4.125, -7.6875, -9.375]
[7.25, -5.8125, -10.0]
[10.0625, -4.8125, -10.5625]
[8.125, -4.25, -10.8125]
[3.125, -3.25, -11.6875]
[0.875, -3.1875, -12.875]
[0.0, -4.125, -13.0]
[1.625, -4.5625, -13.125]
[2.5625, -4.875, -13.375]
[2.375, -5.375, -13.6875]
[3.0, -5.1875, -13.3125]
[4.25, -4.8125, -13.0]
[3.1875, -6.375, -13.75]
[-0.5625, -7.1875, -12.4375]
[0.25, -6.6875, -11.3125]
[0.4375, -5.9375, -11.4375]
[1.3125, -5.625, -10.5]
[-0.125, -6.25, -9.5]
[-2.0625, -6.875, -8.25]
[1.8125, -6.0, -6.5]
[3.625, -5.625, -4.4375]
[2.625, -5.8125, -3.3125]
[1.3125, -6.25, -1.75]
[4.625, -6.5, 0.6875]
[7.0625, -6.25, 2.5625]
[8.5, -4.25, 3.375]
[5.25, -2.9375, 3.9375]
[1.4375, -2.9375, 4.5]
[-0.1875, -2.6875, 5.0625]
[1.125, -1.5, 4.0]
[4.1875, -0.0625, 2.6875]
[1.5, 1.5625, 2.625]
[-5.75, 1.75, 3.25]
[-8.8125, 1.375, 4.625]
[-3.5, 4.0, 4.9375]
[6.75, 8.0, 5.125]
[10.25, 7.9375, 6.3125]
[10.1875, 9.5625, 5.25]
[8.5625, 5.8125, 7.0]
[7.4375, 6.8125, 5.5625]
[6.875, 6.625, 4.25]
[7.1875, 8.5625, 5.5]
[5.75, 8.4375, 7.0625]
[1.75, 7.5625, 10.5625]
[1.1875, 0.9375, 15.125]
[8.6875, -2.0625, 12.0625]
[11.875, -0.875, 5.75]
[5.25, -4.3125, 4.875]
[7.4375, -3.6875, 3.625]
[4.1875, 0.9375, -2.25]
[-3.0625, 2.625, -5.5625]
[-6.625, 3.875, -3.1875]
[-10.8125, 4.3125, -6.0625]
[-12.9375, 4.375, -8.375]
[-8.25, 4.1875, -9.125]
[-3.875, 5.5, -11.0625]
[-5.125, 5.0, -11.9375]
[-8.125, 2.5, -8.4375]
[-6.8125, 3.0, -5.375]
[9.375, 1.0, -3.0625]
[0.375, 0.75, -1.0]
[-7.875, 1.25, -3.125]
[0.75, 0.75, -0.6875]
[9.5625, 2.9375, 2.0625]
[4.125, 4.1875, 0.875]
[-3.5625, 2.1875, -0.5]
[-0.625, 5.9375, 2.4375]
[4.1875, 6.5625, 9.3125]
[5.75, 1.4375, 13.3125]
[16.4375, -4.75, 9.4375]
[18.5, -5.3125, 1.625]
[2.375, -5.6875, -5.625]
[0.625, -6.8125, -2.0625]
[-0.6875, -8.9375, -2.3125]
[-1.75, -0.0625, -11.3125]
[7.1875, 5.9375, -2.8125]
[-16.0625, 6.9375, -3.8125]
[-24.625, 6.625, -9.0]
[-28.0, 10.375, -5.5]
[-26.1875, 7.75, -2.5]
[-13.5625, 7.125, -2.625]
[-1.9375, 6.25, -4.0]
[-2.4375, 2.9375, -4.25]
[-5.625, 2.1875, -3.375]
[-2.875, 0.625, 3.125]
[1.1875, 1.1875, 3.1875]
[0.375, 2.1875, -1.4375]
[2.9375, 0.4375, 3.375]
[9.1875, 1.3125, 6.125]
[1.75, 1.875, 7.1875]
[7.5625, 3.625, 7.8125]
[6.4375, 2.5625, 8.25]
[5.75, 3.3125, 6.75]
[3.75, 1.875, 6.0]
[0.8125, 0.125, 6.5]
[-3.9375, -1.9375, 3.875]
[-5.0, -2.75, 0.8125]
[-1.0, -1.4375, 0.4375]
[-3.4375, 1.125, 1.375]
[-4.5625, 3.75, 0.0625]
[-5.5, 3.4375, 0.4375]
[-6.75, 3.4375, 1.875]
[-7.4375, 2.875, -0.1875]
[-6.75, 1.9375, -1.0]
[-4.375, 0.875, 0.5]
[-4.125, -4.0, -0.625]
[-3.1875, -2.25, -2.5]
[0.1875, 5.25, -1.875]
[-2.625, 5.9375, 0.375]
[-4.125, 3.1875, 1.375]
[-4.4375, 1.125, 0.3125]
[-1.125, 1.25, 0.75]
[2.75, 3.3125, 1.5625]
[0.375, 3.0625, 2.4375]
[-2.3125, 1.5625, 2.125]
[-0.875, -0.0625, 2.25]
[3.5, -0.0625, 1.3125]
[5.3125, 0.3125, 0.0625]
[2.875, -0.625, 1.0625]
[-0.4375, -1.125, 1.5]
[-2.6875, -0.9375, 1.5625]
[-1.5625, -1.0625, 0.875]
[-0.1875, -0.75, -0.1875]
[1.3125, 1.5, 1.8125]
[-2.4375, 1.3125, 1.1875]
[-5.75, 0.5625, 0.4375]
[-4.125, 1.0, 1.1875]
[-0.5, 1.6875, 1.5]
[1.6875, 1.875, 0.125]
[4.0625, 4.8125, 0.4375]
[1.0625, 6.1875, 0.75]
[-3.625, 4.5, -0.3125]
[-6.0, 3.25, 0.0]
[-3.5625, 2.8125, 0.625]
[1.1875, 5.6875, 1.4375]
[5.25, 6.8125, 3.5]
[1.75, -0.625, 3.25]
[2.125, 2.875, -1.125]
[-2.0625, 4.3125, 1.1875]
[-8.6875, 2.1875, 0.375]
[-2.3125, -0.375, -0.9375]
[8.6875, -0.375, -0.5625]
[12.6875, 1.0, 1.1875]
[5.375, 4.125, 0.625]
[-4.0625, 2.75, 0.375]
[-5.25, -2.0625, 0.1875]
[-2.1875, -2.5625, -0.375]
[1.875, -1.1875, -0.125]
[2.4375, 6.0, 0.1875]
[-2.625, 1.4375, 1.75]
[-8.6875, -4.375, 1.0]
[-0.25, -4.25, -6.5625]
[2.1875, -0.75, -9.125]
[4.875, 2.3125, -6.25]
[0.6875, 3.125, 0.9375]
[-8.125, -0.3125, -0.0625]
[-4.0, 1.375, -0.4375]
[-4.0, -4.375, -1.125]
[1.3125, -4.875, -2.1875]
[4.4375, -2.875, 0.625]
[3.125, -1.9375, 4.125]
[-1.0, -1.0625, 3.5]
[-0.4375, 0.1875, 1.0]
[6.125, -1.1875, 3.0]
[11.75, -1.6875, 3.625]
[5.375, -1.75, 1.6875]
[-4.9375, -1.0625, 0.0]
[-10.3125, 0.0, -1.125]
[-7.6875, -1.0, -0.3125]
[-2.375, -1.1875, -2.375]
[3.0625, -0.1875, -4.1875]
[1.5, 0.0, -3.75]
[-2.875, 0.25, -1.5]
[-4.875, 2.25, 1.9375]
[-11.375, 1.4375, 2.1875]
[-6.9375, -0.5, -1.375]
[0.25, -2.125, -0.5]
[8.375, -1.9375, -0.5625]
[9.0, 0.75, -0.625]
[-2.3125, 0.5625, 0.125]
[-11.25, -1.125, -1.25]
[-7.25, -2.6875, -0.5625]
[0.375, -0.8125, 1.1875]
[-0.9375, -0.8125, 2.0]
[-3.625, -3.5625, -0.375]
[-8.25, -4.9375, -1.4375]
[-2.75, -5.375, -1.25]
[1.875, -7.9375, -2.8125]
[3.875, -8.25, -0.6875]
[2.9375, -7.6875, 0.0625]
[-0.3125, -4.3125, 3.0625]
[-5.125, -3.875, 4.0625]
[-2.4375, -4.4375, 2.875]
[0.6875, -5.625, 4.0]
[5.4375, -6.125, 3.5625]
[7.75, -2.3125, 3.375]
[4.6875, 1.4375, 5.75]
[-4.8125, 1.375, 5.875]
[-6.9375, 0.375, 3.5]
[-3.25, -0.875, 3.375]
[2.125, -1.375, 1.9375]
[4.5625, 0.1875, 1.375]
[3.75, 1.25, 1.125]
[-0.3125, 0.0, 0.75]
[-1.75, -1.25, 0.75]
[0.5, -2.0625, 0.3125]
[6.6875, 0.75, -0.3125]
[15.1875, 6.1875, 0.5]
[13.4375, 5.5, 0.9375]
[9.0625, 2.5625, 4.25]
[9.3125, 1.6875, 9.875]
[20.5625, 4.1875, 8.0]
[31.6875, 6.1875, 10.5]
[26.5625, 4.4375, 12.6875]
[15.5625, -0.9375, 6.875]
[-2.0, -2.3125, 5.6875]
[-14.125, -2.375, 6.0]
[-14.0, -2.4375, 5.375]
[-7.375, -2.1875, 0.5625]
[-2.125, 0.0625, -1.625]
[-3.9375, 2.5, -1.8125]
[-8.6875, 2.75, -1.625]
[-10.375, 1.5625, 0.25]
[-8.125, -0.125, -0.6875]
[-12.125, 0.0625, -0.875]
[-12.9375, 1.875, 0.0625]
[-18.5625, 0.0625, 0.8125]
[-17.5625, -1.1875, -1.125]
[-13.1875, -2.0, -2.3125]
[-6.8125, 0.5, -0.8125]
[-1.8125, 1.625, 1.6875]
[-4.5, 0.5, 3.75]
[-5.625, -0.125, 3.9375]
[-6.75, -2.375, 5.125]
[-3.4375, -1.625, 5.5]
[2.75, -0.8125, 5.125]
[3.5, -0.25, 3.3125]
[0.8125, -4.875, 7.0625]
[-9.25, -20.625, 16.4375]
[-31.3125, -21.625, 23.8125]
[-38.125, -21.875, 23.4375]
[-19.6875, -16.5625, 29.375]
[0.5625, 1.375, 31.125]
[29.6875, 11.8125, 32.8125]
[28.1875, 9.6875, 40.625]
[28.125, 3.875, 55.5]
[14.1875, 3.1875, 53.375]
[9.4375, 1.75, 45.6875]
[33.9375, -0.6875, 50.1875]
[44.6875, 0.0, 51.0625]
[46.6875, 0.5625, 53.1875]
[28.5625, -3.8125, 59.1875]
[9.5625, -11.0625, 62.9375]
[4.375, -20.0625, 63.375]
[8.875, -28.625, 58.25]
[22.1875, -35.75, 53.1875]
[28.9375, -43.5, 51.625]
[25.1875, -51.5, 52.0]
[15.625, -59.625, 51.0625]
[8.25, -64.25, 51.375]
[5.25, -69.75, 49.375]
[3.4375, -77.25, 44.3125]
[7.875, -85.625, 34.375]
[28.375, -78.125, 20.0625]
[135.8125, -7.0, -34.0625]
[127.3125, 28.3125, -38.1875]
[44.1875, 22.125, 7.4375]
[-34.875, 22.4375, 14.6875]
[-71.1875, 16.5, 5.0]
[-72.3125, 4.25, 3.9375]
[-69.9375, -1.8125, -12.5625]
[-49.75, -0.4375, -28.4375]
[-27.6875, 8.4375, -27.0]
[-11.625, 17.25, -18.5]
[-10.625, 21.8125, -14.375]
[-32.25, 22.8125, -15.1875]
[-62.125, 21.0625, -21.4375]
[-82.375, 22.1875, -33.1875]
[-84.875, 22.875, -37.5]
[-69.8125, 21.8125, -34.8125]
[-49.8125, 19.25, -29.0]
[-36.375, 16.375, -21.625]
[-27.5, 12.625, -15.9375]
[-24.5625, 11.25, -12.875]
[-18.125, 10.8125, -11.125]
[-10.0, 10.375, -9.5]
[-7.125, 8.0, -7.375]
[-8.25, 5.0625, -4.625]
[-9.1875, 3.625, -0.0625]
[-4.6875, 2.375, 4.0625]
[3.3125, -0.0625, 4.625]
[7.1875, 0.125, 3.75]
[7.375, 2.25, 2.5]
[5.9375, 2.125, 1.0625]
[4.4375, 0.75, 0.0]
[0.0625, -0.875, -2.4375]
[-5.0, -2.5, -4.6875]
[-9.6875, -3.3125, -7.125]
[-11.8125, -3.875, -7.1875]
[-10.125, -3.8125, -5.4375]
[-6.875, -4.5, -4.0625]
[-3.5625, -5.3125, -3.1875]
[-1.875, -4.875, -2.9375]
[-4.0, -3.125, -2.5625]
[-6.5, -0.875, -1.8125]
[-8.1875, 2.75, -1.25]
[-2.0625, 2.3125, -2.25]
[6.1875, -5.625, -7.5]
[5.875, -10.25, -9.25]
[-0.25, -6.8125, 1.625]
[-11.0, -3.4375, 8.875]
[-10.625, -3.0625, 3.6875]
[2.25, -0.6875, -0.625]
[16.625, 2.0625, 0.125]
[21.25, 4.125, 2.25]
[15.75, 6.875, 3.125]
[8.9375, 9.6875, 4.1875]
[5.1875, 10.375, 4.5]
[4.75, 9.375, 3.0625]
[-1.125, 7.1875, 4.625]
[-17.5, 4.0625, -0.1875]
[-18.25, 0.1875, -2.3125]
[-11.125, -0.9375, -2.9375]
[-3.1875, -2.875, -5.0]
[1.9375, -2.6875, -5.75]
[1.6875, -1.8125, -5.8125]
[0.3125, -1.75, -5.125]
[0.3125, -1.75, -4.4375]
[1.75, -1.0625, -3.8125]
[2.3125, -0.5, -2.125]
[2.5, 0.1875, 0.8125]
[2.3125, -0.4375, 2.25]
[2.5625, -2.1875, 1.5]
[3.4375, -3.125, -0.125]
[4.0625, -2.6875, -0.125]
[3.75, -2.0625, -0.1875]
[2.8125, -2.0, -1.3125]
[1.625, -2.0625, -2.1875]
[0.8125, -2.75, -1.9375]
[-0.875, -2.25, -0.9375]
[-1.625, -1.0625, 0.4375]
[-0.5625, -0.25, 0.75]
[0.75, 0.375, 0.5]
[0.625, -0.5, 0.125]
[-1.625, -0.75, 0.1875]
[-3.4375, -0.6875, 0.4375]
[-2.625, -0.625, 1.5]
[-1.1875, -0.625, 2.1875]
[0.5, -1.1875, 2.375]
[2.3125, -1.1875, 2.75]
[2.5, -0.8125, 3.1875]
[1.125, -0.125, 3.125]
[0.25, 0.625, 2.25]
[0.25, 1.3125, 1.3125]
[0.5625, 0.9375, 0.3125]
[0.125, 0.6875, -0.5]
[-1.0, 0.5, -1.25]
[-1.6875, 0.125, -1.625]
[-2.0625, 0.0625, -1.8125]
[-1.6875, 0.0625, -1.75]
[-1.0, 0.4375, -1.1875]
[-1.0, 0.125, -0.9375]
[-1.25, 0.1875, -0.875]
[-0.625, 0.625, -0.4375]
[0.625, 0.625, -0.4375]
[0.375, 0.6875, 0.25]
[-0.25, 0.875, 0.25]
[-0.5625, 1.6875, -0.0625]
[-0.75, 2.1875, -0.625]
[-0.8125, 2.3125, -1.0625]
[-1.625, 2.5625, -0.4375]
[-2.0, 3.125, 0.4375]
[-1.0625, 2.8125, 0.8125]
[0.0625, 2.1875, 0.4375]
[0.625, 1.3125, -0.3125]
[0.0625, 0.5, 0.0625]
[-1.0, -0.3125, 0.375]
[-1.4375, -0.75, -0.1875]
[0.0, -0.625, -0.5]
[1.25, -0.3125, -0.8125]
[1.9375, -0.1875, -1.0]
[1.4375, -0.0625, -0.4375]
[0.1875, 0.125, 0.1875]
[-0.8125, 0.5625, 0.25]
[-0.875, 1.125, -0.1875]
[-0.4375, 1.5625, -0.75]
[-1.0, 2.25, -0.9375]
[-1.8125, 2.75, -0.75]
[-2.125, 2.6875, -0.75]
[-2.0625, 2.375, -0.9375]
[-2.3125, 2.0, -0.9375]
[-2.9375, 1.9375, -0.4375]
[-2.8125, 1.875, 0.0]
[-1.25, 1.5625, 0.0]
[0.625, 1.6875, -0.125]
[1.25, 1.5, -0.0625]
[0.75, 1.6875, 0.0625]
[0.0, 1.8125, 0.1875]
[-0.9375, 1.9375, -0.25]
[-1.25, 2.0, -0.9375]
[-1.5625, 1.75, -1.4375]
[-0.9375, 1.4375, -1.4375]
[0.1875, 1.4375, -0.75]
[0.3125, 1.5, -0.3125]
[0.1875, 1.5625, -0.4375]
[0.125, 1.875, -0.375]
[-0.5, 2.3125, -0.1875]
[-1.1875, 2.625, 0.0]
[-1.5, 2.8125, -0.4375]
[-1.0, 2.5625, -1.0]
[-0.375, 2.1875, -1.0625]
[-0.75, 1.5625, -1.25]
[-1.25, 1.1875, -0.8125]
[-1.0, 1.0, -0.375]
[-0.375, 0.75, -0.125]
[0.75, 0.625, 0.375]
[1.0, 0.125, 0.75]
[0.5, 0.125, 0.8125]
[-0.125, 0.375, 0.75]
[-0.0625, 0.5, 0.375]
[-0.375, 0.8125, -0.25]
[0.0, 0.8125, -0.875]
[-0.5, 0.875, -0.875]
[-1.375, 0.875, -0.125]
[-2.125, 0.75, 0.0]
[-1.1875, 1.3125, -0.25]
[0.25, 1.8125, -0.4375]
[1.1875, 2.0, -0.1875]
[0.4375, 2.0, 0.25]
[-0.0625, 1.75, 0.4375]
[-0.8125, 1.4375, 0.5625]
[-0.375, 0.9375, 0.375]
[0.625, 0.625, 0.125]
[0.6875, 0.25, 0.0625]
[0.25, -0.125, 0.1875]
[-0.3125, 0.0, 0.1875]
[-0.125, 0.0625, -0.0625]
[0.6875, 0.5625, -0.4375]
[0.8125, 0.6875, -0.6875]
[0.25, 0.875, -0.75]
[-0.8125, 0.9375, -0.625]
[-1.1875, 0.8125, -0.875]
[-0.875, 0.625, -1.4375]
[-0.1875, 0.5, -1.25]
[0.375, 0.375, -0.6875]
[-0.0625, 0.25, -0.125]
[-0.1875, -2.125, 0.6875]
[-2.0, -24.0625, 7.4375]
[-20.375, -67.8125, 33.375]
[-149.125, -12.3125, 41.75]
[-222.25, 55.375, 39.25]
[-191.125, 5.75, 102.1875]
[-98.75, -28.25, 178.3125]
[-104.375, -26.75, 194.1875]
[-38.6875, -6.75, 187.5]
[177.1875, 0.375, 177.375]
[200.1875, 12.25, 159.0]
[156.5, -7.6875, 136.125]
[87.75, -42.125, 103.125]
[-5.625, -13.25, 32.5625]
[-62.125, -15.5625, -4.4375]
[-29.5625, -36.4375, 3.8125]
[-9.375, -53.4375, 5.625]
[-16.375, -37.4375, -10.375]
[45.3125, -24.1875, -59.0625]
[119.0625, -49.5, -48.9375]
[70.9375, -49.25, -15.1875]
[-9.0625, -36.3125, -9.8125]
[-53.0, -13.9375, -5.6875]
[-45.6875, 16.8125, -17.9375]
[-50.5, 36.0625, -37.125]
[-2.25, 46.6875, -29.9375]
[28.8125, 46.4375, -26.375]
[25.1875, 45.1875, 3.375]
[40.125, 33.875, 21.4375]
[81.375, 13.1875, 14.5625]
[84.4375, -5.5625, -4.125]
[28.9375, -12.0625, -12.625]
[-33.75, -13.0625, -6.0625]
[-32.5625, -4.0625, 6.375]
[33.9375, 2.125, 7.6875]
[66.0625, -1.5, 0.4375]
[40.3125, -12.9375, -1.5]
[4.0, -21.3125, 6.5625]
[-23.9375, -26.0625, 10.75]
[-22.4375, -28.625, 5.3125]
[5.5625, -14.75, -9.6875]
[-23.0, 5.75, -28.625]
[-26.4375, 9.75, -21.6875]
[-28.6875, -19.8125, -1.625]
[-98.875, -53.25, 4.6875]
[-80.375, -58.3125, 12.625]
[-33.3125, -34.25, 20.6875]
[37.8125, -19.875, -9.875]
[38.75, -30.875, -26.0]
[4.25, -34.625, -39.5]
[-24.3125, -36.25, -22.9375]
[-61.0, -44.9375, -32.875]
[-76.8125, -55.0625, -33.625]
[-82.8125, -50.375, -21.4375]
[-67.25, -40.625, -22.25]
[-49.4375, -35.125, -16.875]
[-31.875, -22.5, -12.25]
[-27.875, -14.1875, -15.125]
[-27.8125, 0.125, -23.1875]
[-25.5, 13.3125, -18.875]
[-24.5, 23.0, -14.9375]
[-33.8125, 28.75, -12.125]
[-2.9375, 18.875, -17.8125]
[4.0, 21.4375, -29.9375]
[1.125, 18.5625, -22.4375]
[-3.625, 21.25, -20.25]
[-7.75, 21.6875, -26.5625]
[-14.125, 19.0, -30.5]
[-10.0, 19.5625, -34.25]
[-3.375, 14.0, -42.1875]
[-0.0625, 7.75, -48.6875]
[-16.125, 9.4375, -43.9375]
[-34.6875, 20.0625, -57.9375]
[-57.6875, 34.625, -74.9375]
[-65.4375, 45.625, -87.0]
[-68.3125, 43.8125, -104.8125]
[-80.6875, 41.1875, -109.4375]
[-100.9375, 45.125, -101.8125]
[-103.1875, 55.375, -103.5625]
[-97.625, 61.375, -109.5]
[-84.875, 58.75, -107.9375]
[-66.9375, 56.0625, -97.3125]
[-53.5, 45.3125, -67.6875]
[-14.9375, 39.875, -31.1875]
[7.625, 38.0, 5.4375]
[11.375, 32.125, 16.75]
[35.625, 21.3125, 14.3125]
[75.125, 20.0625, -1.0625]
[109.1875, 20.875, -16.625]
[115.5625, 9.3125, -23.4375]
[116.4375, -1.375, -14.375]
[100.6875, -20.6875, 4.125]
[99.8125, -31.5, 4.125]
[77.125, -32.8125, 4.25]
[53.3125, -36.8125, 11.0625]
[47.3125, -44.6875, 17.5625]
[49.25, -53.5, 14.875]
[57.25, -57.75, 4.4375]
[56.0625, -48.375, -7.375]
[42.4375, -37.875, -17.125]
[15.8125, -26.3125, -23.625]
[-13.9375, -18.9375, -26.6875]
[-24.5625, -16.75, -28.875]
[-18.75, -17.75, -26.5]
[-12.8125, -18.1875, -29.0]
[-8.8125, -18.375, -36.4375]
[-7.0, -18.5, -43.8125]
[-9.0625, -20.0, -48.0]
[-14.0, -21.1875, -48.5625]
[-17.625, -20.4375, -47.0]
[-16.8125, -18.875, -44.8125]
[-13.0625, -19.375, -42.8125]
[-10.25, -22.5625, -42.3125]
[-7.1875, -27.5, -43.0625]
[-2.75, -30.0, -41.5]
[-0.375, -28.4375, -37.0]
[0.8125, -28.5625, -32.125]
[-2.4375, -31.1875, -26.0]
[-6.25, -33.0, -21.375]
[-7.375, -34.0, -20.1875]
[-4.1875, -32.6875, -17.8125]
[1.0, -26.25, -14.25]
[4.8125, -20.0625, -9.9375]
[8.5625, -16.3125, -4.0625]
[7.75, -14.0, 3.1875]
[1.875, -13.125, 6.6875]
[-0.875, -10.1875, 7.1875]
[5.75, -5.0, 10.0]
[16.125, -0.9375, 12.1875]
[19.4375, -0.0625, 13.375]
[16.3125, -2.125, 16.3125]
[8.8125, -1.8125, 15.375]
[1.5625, 4.0625, 10.0625]
[0.625, 12.125, 8.125]
[0.375, 16.625, 8.5]
[-1.5625, 19.3125, 8.5]
[-4.1875, 23.625, 9.0]
[-7.9375, 26.9375, 9.25]
[-11.625, 28.5625, 14.4375]
[-18.5, 31.5, 22.625]
[-22.8125, 37.4375, 33.5625]
[-19.625, 43.0625, 44.9375]
[-12.375, 44.375, 50.125]
[-3.625, 42.3125, 48.875]
[2.375, 37.8125, 48.6875]
[6.0, 33.4375, 48.9375]
[8.0, 32.25, 46.0]
[6.6875, 31.875, 45.1875]
[0.375, 30.125, 53.3125]
[-5.5, 23.5625, 63.375]
[-4.5625, 11.5625, 58.0]
[-2.125, 0.4375, 39.375]
[4.0, -2.625, 29.5]
[14.375, -1.5625, 32.0625]
[17.25, -1.5, 34.1875]
[13.75, -2.875, 32.5]
[9.0625, -5.25, 26.1875]
[5.0625, -4.0625, 16.5625]
[7.125, 4.5, 13.0625]
[20.5625, 16.75, 18.375]
[34.0625, 24.375, 28.0]
[28.8125, 22.75, 31.0625]
[21.0, 20.6875, 21.25]
[22.375, 22.375, 16.6875]
[30.3125, 19.0, 10.4375]
[27.25, 14.25, 5.25]
[5.625, 9.75, 9.4375]
[-35.625, 16.875, 8.0]
[-52.875, 19.25, 10.3125]
[-29.5, 18.4375, 21.4375]
[-4.5, 23.125, 28.3125]
[8.625, 39.0, 36.25]
[4.3125, 45.1875, 51.75]
[-3.9375, 46.125, 53.125]
[-9.125, 46.0625, 43.3125]
[2.5, 42.5625, 39.5625]
[12.1875, 35.25, 42.25]
[29.875, 33.25, 36.6875]
[52.0625, 38.0625, 32.3125]
[54.0, 47.6875, 27.1875]
[37.875, 46.3125, 14.125]
[21.875, 31.875, 1.0625]
[6.625, 20.0625, -3.3125]
[13.1875, 18.375, 5.375]
[40.3125, 25.5625, 9.625]
[60.3125, 25.5, 6.25]
[45.3125, 17.25, -2.8125]
[15.0625, 5.5625, -10.8125]
[3.25, -2.5625, -10.6875]
[12.1875, -0.8125, -3.6875]
[23.9375, 5.75, -13.1875]
[22.125, 7.0, -26.625]
[2.6875, 0.875, -36.25]
[-16.1875, -7.6875, -45.4375]
[-17.25, -14.625, -45.5]
[-12.375, -13.875, -38.625]
[-10.875, -10.625, -36.9375]
[-7.3125, -10.6875, -36.4375]
[-12.875, -14.125, -39.375]
[-21.9375, -20.125, -44.625]
[-26.375, -20.5625, -42.625]
[-26.375, -16.4375, -37.0]
[-36.9375, -10.75, -30.3125]
[-65.0625, 3.0625, -20.625]
[-81.125, 29.5625, -15.9375]
[-77.9375, 38.0, -19.1875]
[-75.5, 38.1875, -23.3125]
[-59.875, 40.875, -22.8125]
[-43.875, 36.4375, -10.6875]
[-35.1875, 23.0, 8.375]
[-22.25, 8.0625, 15.0]
[0.875, -0.3125, 11.125]
[32.5625, -2.0625, 11.375]
[64.125, -3.75, 21.3125]
[95.125, -10.125, 32.625]
[96.875, -10.5625, 22.8125]
[66.5625, 0.3125, 7.1875]
[38.1875, 8.5625, -0.25]
[9.0, 3.9375, -1.375]
[-6.75, -2.375, 5.4375]
[-7.0625, 0.0625, -1.3125]
[7.75, 6.3125, -0.0625]
[7.375, 8.8125, 16.75]
[1.125, -3.75, 41.5]
[12.8125, -15.625, 54.375]
[49.8125, -14.875, 55.5625]
[76.25, -5.75, 40.5]
[78.625, 2.25, 27.8125]
[65.75, 5.25, 14.1875]
[33.1875, 4.1875, 6.5625]
[12.9375, -1.75, -5.0]
[1.875, -4.375, -12.5625]
[2.375, -0.9375, -11.8125]
[-6.1875, 0.75, -12.875]
[-14.9375, 2.4375, -16.6875]
[-17.75, 7.0, -12.0]
[-18.625, 9.625, -9.6875]
[-12.875, 12.375, -9.625]
[-3.8125, 13.625, -4.9375]
[0.9375, 10.3125, -4.0625]
[7.75, 6.625, -5.25]
[16.5, 7.5, -4.75]
[12.0, 9.6875, -1.25]
[4.125, 5.875, 5.0625]
[6.4375, 2.3125, 10.9375]
[12.625, -1.0, 9.125]
[15.875, -2.875, 8.1875]
[14.125, -3.8125, 6.25]
[5.5625, -4.1875, 1.5625]
[-3.5625, -5.6875, 0.4375]
[-5.3125, -5.375, -4.4375]
[-1.875, -2.3125, -11.75]
[-3.1875, 0.1875, -18.75]
[-13.5625, 4.125, -19.6875]
[-27.9375, 7.625, -9.75]
[-45.9375, 7.4375, -7.0625]
[-37.0, 6.1875, -14.125]
[-17.25, 8.1875, -18.0625]
[-7.9375, 8.3125, -17.6875]
[-9.125, 6.5, -10.4375]
[-11.5625, 4.1875, -2.0]
[-10.875, 1.5625, -1.8125]
[-5.75, 1.75, -4.1875]
[-0.5, 3.3125, -4.25]
[-2.4375, 3.3125, -2.875]
[-3.6875, 0.9375, -0.625]
[1.5, 0.0, 3.8125]
[6.875, 0.875, 8.375]
[2.75, 1.5, 7.375]
[-0.125, 1.125, 4.875]
[-0.9375, 1.1875, 2.0625]
[-0.625, 0.3125, 0.6875]
[0.8125, 0.625, -1.25]
[4.0, 3.5625, 0.5]
[-3.5625, 4.3125, 5.0]
[-9.125, 3.3125, 1.9375]
[-5.75, 3.75, -2.375]
[-0.75, 3.5, -4.875]
[-0.5625, 2.375, -5.9375]
[-2.375, 2.4375, -5.4375]
[-4.3125, 2.75, -1.6875]
[-9.8125, 1.75, -0.8125]
[-7.5625, 0.625, -2.75]
[-1.125, 0.875, -3.3125]
[2.75, 1.625, -2.875]
[2.5, 1.875, -2.6875]
[-0.75, 1.25, -0.5625]
[-5.0, 0.625, -0.375]
[-5.5, -0.125, -0.375]
[-2.125, 0.0, 0.0625]
[1.4375, 0.0625, 0.4375]
[3.9375, 0.3125, -0.5]
[5.25, 0.375, 0.625]
[-2.75, -0.375, 2.0]
[-6.75, -0.5625, 1.5]
[-4.875, 0.125, 1.6875]
[-1.5, 0.375, 1.0625]
[1.75, -0.125, -0.0625]
[3.4375, -1.0, 0.625]
[2.1875, -1.6875, 1.125]
[1.5, -1.8125, 1.6875]
[-1.0625, -2.25, 3.6875]
[-2.9375, -3.5625, 3.75]
[0.3125, -4.375, 2.5625]
[3.9375, -5.4375, 1.4375]
[5.0, -5.75, 0.1875]
[3.4375, -5.25, 0.4375]
[2.3125, -5.9375, -0.1875]
[2.75, -6.875, -0.3125]
[2.75, -8.0, -1.5625]
[2.1875, -8.625, -2.875]
[2.0, -9.0625, -2.0]
[-1.375, -10.0625, -2.25]
[-1.375, -10.625, -3.5625]
[2.125, -9.875, -4.875]
[3.3125, -8.9375, -5.0]
[1.625, -8.0, -4.5]
[-2.3125, -6.5, -3.625]
[-5.0, -5.1875, -1.625]
[-1.5625, -3.5, -2.4375]
[4.3125, -1.6875, -3.3125]
[7.125, -0.6875, -3.6875]
[7.1875, -2.9375, -1.875]
[7.0625, -6.0, -0.0625]
[10.125, -7.4375, 1.1875]
[11.625, -7.1875, 1.6875]
[10.0625, -7.375, 1.5625]
[8.75, -9.1875, -0.6875]
[8.875, -10.0625, -3.625]
[6.5625, -8.0625, -1.8125]
[6.6875, -2.9375, 3.75]
[19.4375, -0.125, 14.25]
[44.1875, 5.625, 18.9375]
[64.0625, 16.9375, 5.75]
[74.0, 11.25, 8.0]
[70.875, 3.5625, 19.3125]
[49.5, 2.1875, 16.875]
[38.9375, -5.9375, 16.625]
[33.125, -13.0, 12.25]
[38.1875, -19.9375, 1.375]
[36.0, -23.3125, -5.8125]
[31.9375, -25.3125, -8.875]
[21.8125, -26.4375, -8.25]
[18.4375, -27.875, -7.8125]
[23.75, -30.25, -9.125]
[29.0, -29.6875, -9.8125]
[31.625, -22.6875, -6.8125]
[23.9375, -15.5625, -4.3125]
[11.0, -12.0, -3.0]
[-1.6875, -12.3125, -4.0625]
[-6.5, -13.125, -7.5625]
[-5.5, -9.0625, -9.125]
[-12.375, -2.5625, -11.125]
[-23.375, 0.0, -14.5625]
[-31.6875, 3.625, -16.0]
[-31.4375, 10.9375, -15.375]
[-31.1875, 17.125, -14.0625]
[-31.375, 21.0625, -16.4375]
[-32.875, 23.375, -18.4375]
[-34.9375, 26.125, -21.5625]
[-32.125, 26.5625, -22.1875]
[-32.3125, 24.9375, -20.0]
[-30.625, 17.5, -16.375]
[-23.3125, 10.0, -15.5]
[-15.3125, 4.6875, -11.625]
[-9.875, 0.625, -9.375]
[-7.625, 1.1875, -6.0]
[-5.3125, 2.6875, 0.4375]
[-3.5625, -0.1875, 1.0625]
[0.625, -2.5, 2.25]
[6.4375, -4.3125, 3.875]
[9.0, -6.125, 3.1875]
[8.8125, -4.6875, 3.375]
[5.5625, -1.6875, 3.375]
[3.0625, 0.625, 1.9375]
[-1.5625, 4.375, 0.8125]
[-4.8125, 5.75, -0.3125]
[-5.375, 4.375, -2.9375]
[-4.25, 3.4375, -5.125]
[-1.75, 2.1875, -5.3125]
[-5.125, -0.875, -5.4375]
[-5.5625, -1.875, -4.4375]
[-3.375, 2.625, -1.4375]
[-2.5, 2.625, -1.8125]
[-1.25, -0.0625, -1.8125]
[-0.625, -0.375, -0.4375]
[1.1875, 0.9375, 1.375]
[2.6875, 2.0, 2.125]
[3.75, 1.875, 2.3125]
[0.9375, 0.9375, 2.875]
[-0.3125, 1.875, 2.8125]
[-1.5, 2.0, 2.0625]
[-0.625, 2.4375, -0.5625]
[1.4375, 4.4375, -1.5]
[-1.125, 3.25, -3.0625]
[-5.25, 1.1875, -3.375]
[-5.5625, 0.8125, -3.25]
[-2.5, -0.125, -2.75]
[-0.0625, -1.4375, -2.75]
[1.125, -1.1875, -0.4375]
[-0.625, -2.1875, -0.125]
[-0.6875, -1.6875, 1.0625]
[1.5625, -0.4375, 1.1875]
[1.875, -0.6875, -0.4375]
[0.5625, -0.25, -1.1875]
[-0.8125, 0.5, -0.1875]
[-1.875, 0.625, -0.9375]
[-0.5, 3.3125, -1.125]
[-1.0, 3.1875, -1.125]
[-3.4375, 1.25, -1.6875]
[-3.5625, 1.0625, -1.3125]
[-1.625, -0.5625, -1.625]
[1.1875, -1.0625, -2.0625]
[-0.9375, -0.8125, -1.5]
[-3.0625, -1.875, -2.0625]
[-1.625, 0.625, -0.875]
[-1.375, 0.6875, -0.75]
[-0.6875, 0.5625, -0.625]
[-2.4375, 1.75, -0.1875]
[-1.375, 2.625, 1.25]
[0.1875, 2.5625, 1.25]
[0.8125, 1.9375, 0.5625]
[2.5625, 2.875, 1.75]
[0.0, 1.8125, 0.8125]
[-1.375, 0.0, -0.5]
[-1.5625, 1.1875, -0.75]
[-0.6875, 1.625, -0.75]
[-1.5, 0.625, -1.6875]
[-1.375, 1.4375, -1.0]
[-1.25, 0.9375, -0.4375]
[-1.3125, -1.1875, -1.3125]
[-1.0, -1.4375, -0.3125]
[1.25, 0.3125, 0.25]
[0.9375, 1.0625, 0.5]
[-0.75, 0.6875, -0.0625]
[-1.625, 1.3125, -0.0625]
[-1.0625, 1.8125, 0.0]
[0.3125, 0.6875, -1.0625]
[-0.875, 0.5625, -1.375]
[-2.375, 1.125, -0.4375]
[-4.1875, 0.0, -1.6875]
[-3.0, -0.3125, -1.6875]
[-0.75, -0.6875, -1.625]
[-0.9375, -1.25, -1.5625]
[-0.75, -0.75, -0.0625]
[-1.125, 0.3125, 1.0]
[-0.6875, 0.125, 0.5]
[1.1875, -0.6875, 0.875]
[1.125, -1.5625, 0.25]
[1.5625, -1.375, 0.0625]
[1.25, -0.4375, 0.25]
[-1.4375, -1.125, -0.125]
[-1.6875, -0.75, -0.3125]
[-0.6875, 0.5625, -0.625]
[0.3125, 0.375, -1.5625]
[-0.125, 1.4375, -1.875]
[-0.625, 1.375, -0.75]
[-0.375, -0.1875, -0.75]
[-2.5, -1.4375, -0.4375]
[-0.8125, -1.4375, -0.125]
[0.0, -1.25, 0.0]
[0.5, -1.5, -0.625]
[1.1875, -1.0, -0.4375]
[0.5, -1.625, -0.8125]
[-0.3125, -1.625, -1.25]
[0.0625, -0.6875, -1.0625]
[1.1875, -1.0625, -1.375]
[0.375, 0.0625, -0.3125]
[4.6875, -21.3125, 9.6875]
[17.25, -38.0, 38.0625]
[-7.125, -25.1875, 43.5625]
[10.125, -1.375, 43.375]
[-3.9375, 33.6875, 48.5625]
[-47.1875, 94.8125, 46.3125]
[-68.375, 132.125, 64.25]
[-86.875, 153.5, 65.4375]
[-89.125, 160.1875, 60.5]
[-69.4375, 161.5625, 52.375]
[-38.875, 162.75, 44.8125]
[-6.25, 160.375, 34.6875]
[33.25, 146.75, 16.375]
[50.5, 139.0, -16.0]
[48.3125, 149.375, -54.9375]
[51.8125, 149.75, -58.875]
[24.75, 133.5, -41.3125]
[-4.9375, 111.75, -30.1875]
[10.625, 91.1875, -29.5625]
[53.5, 81.0, -47.875]
[88.875, 69.5625, -65.875]
[71.875, 50.125, -70.8125]
[8.75, 33.8125, -63.0625]
[-27.8125, 24.75, -43.5]
[-16.8125, 15.6875, -25.8125]
[18.0625, 15.0625, -19.5]
[53.1875, 23.25, -14.9375]
[69.125, 30.625, -10.3125]
[46.9375, 39.5, -0.875]
[3.6875, 43.3125, 7.0625]
[-29.375, 31.0625, 11.5625]
[-17.5, 16.75, 12.9375]
[12.375, 10.1875, 4.3125]
[18.375, 12.75, -0.6875]
[-2.1875, 11.4375, 7.75]
[-23.5625, 5.5625, 18.125]
[-25.9375, 1.875, 22.5625]
[-19.5, 3.6875, 22.75]
[-20.0, 9.75, 22.9375]
[-28.4375, 14.0, 24.5625]
[-45.0, 5.3125, 27.9375]
[-47.75, -11.375, 31.4375]
[-22.75, -21.6875, 23.6875]
[0.0, -19.8125, 11.375]
[-2.75, -17.6875, 4.25]
[-15.75, -20.8125, 3.375]
[-23.625, -27.5625, 5.125]
[-15.8125, -30.3125, 3.1875]
[1.3125, -30.625, 2.625]
[7.625, -28.9375, 1.4375]
[-1.5, -25.3125, -2.3125]
[-15.5, -24.3125, -2.3125]
[-15.875, -23.375, 3.625]
[1.125, -22.8125, 6.8125]
[15.1875, -22.375, 4.75]
[13.1875, -20.0625, -0.6875]
[3.9375, -14.875, -3.625]
[-2.1875, -7.4375, -4.5625]
[-2.5, -2.5625, -10.0625]
[-1.6875, -2.9375, -15.125]
[3.1875, -3.125, -14.5625]
[6.375, -5.8125, -11.625]
[4.875, -5.5625, -8.5]
[-1.25, -2.625, -3.375]
[-7.6875, -2.1875, -1.1875]
[-10.3125, -3.6875, 0.75]
[-4.9375, -4.6875, 5.9375]
[1.125, -6.0625, 9.4375]
[3.3125, -7.9375, 8.625]
[-4.875, -3.0625, 6.3125]
[-16.25, 4.4375, 7.3125]
[-17.875, 8.75, 7.3125]
[-20.6875, 11.75, 5.6875]
[-15.8125, 10.4375, 8.0]
[-4.25, 10.125, 10.1875]
[0.9375, 13.1875, 12.0625]
[-1.3125, 15.9375, 11.25]
[-4.6875, 16.75, 6.6875]
[-5.0, 15.8125, 5.5]
[-2.8125, 12.9375, 3.625]
[6.875, 9.375, -0.3125]
[5.0625, 5.5, -3.0]
[17.25, 7.75, -5.375]
[26.4375, 12.25, -7.0]
[26.25, 18.0625, -13.75]
[17.1875, 25.5, -19.875]
[5.3125, 30.0, -21.8125]
[-4.3125, 28.875, -15.75]
[-6.5625, 25.8125, -12.6875]
[-0.625, 22.5625, -14.125]
[6.5, 15.0, -13.4375]
[7.5, 8.75, -12.125]
[4.1875, 2.0, -4.8125]
[5.3125, -3.0625, 0.8125]
[0.5, -11.25, 8.5]
[-1.25, -11.875, 16.0625]
[-2.125, -14.75, 26.3125]
[-2.9375, -17.625, 31.9375]
[-3.3125, -23.625, 34.8125]
[-15.25, -29.125, 34.125]
[-26.0, -32.4375, 40.625]
[-24.0, -35.1875, 50.125]
[-9.8125, -42.8125, 58.5]
[-3.3125, -50.75, 62.0]
[-12.1875, -61.75, 69.9375]
[-24.875, -75.0625, 79.4375]
[-30.4375, -87.5625, 86.75]
[-19.375, -97.125, 90.1875]
[-1.25, -104.5625, 87.9375]
[6.4375, -118.4375, 90.0]
[-12.875, -126.375, 87.9375]
[-21.8125, -118.8125, 75.875]
[-13.75, -106.0625, 69.75]
[-6.1875, -99.625, 67.75]
[-5.9375, -104.6875, 63.5]
[-8.4375, -110.9375, 50.625]
[-10.3125, -105.4375, 28.5]
[-2.8125, -91.1875, 10.3125]
[15.0625, -82.1875, -2.5625]
[17.25, -84.0625, -9.8125]
[-6.125, -100.8125, -12.125]
[-26.5, -121.1875, -25.125]
[-27.25, -136.4375, -35.4375]
[-16.4375, -129.6875, -48.5625]
[20.6875, -81.625, -65.875]
[33.8125, -28.5, -76.8125]
[-46.75, -39.75, -79.25]
[-96.5, -47.875, -51.8125]
[-99.3125, -41.8125, 0.5]
[-33.0625, -23.1875, 57.75]
[69.5625, -5.8125, 41.125]
[91.4375, 6.5625, 20.75]
[69.1875, 0.3125, 13.5]
[40.6875, -6.8125, -1.0]
[12.625, -9.75, -7.125]
[-14.0, -2.75, -0.9375]
[-20.875, 6.0, -1.25]
[-11.0, 11.0, -7.0]
[5.125, 12.8125, -10.25]
[7.25, 11.0625, -7.1875]
[-8.125, 8.375, -7.625]
[-15.8125, 4.875, -7.0]
[-10.375, 2.625, -5.0]
[-6.4375, 3.25, -4.5]
[-6.6875, 2.1875, -2.9375]
[-2.625, -1.3125, -1.1875]
[7.0625, -4.5, -1.8125]
[15.5, -4.875, -3.125]
[13.6875, -4.1875, -0.3125]
[-0.3125, -4.5, 2.6875]
[-10.875, -5.4375, 2.5625]
[-9.0625, -4.1875, 0.4375]
[0.25, -2.4375, -1.1875]
[9.625, 0.25, -3.1875]
[13.8125, 3.0625, -1.375]
[1.5, 4.6875, 0.9375]
[-4.5625, 2.0625, 3.375]
[-1.75, -1.25, 2.6875]
[5.375, -2.0, 0.0]
[5.6875, -0.9375, -0.5]
[5.125, 0.3125, 2.25]
[2.0625, -1.3125, 3.75]
[0.5625, -3.375, 1.25]
[2.3125, -0.5625, 0.625]
[3.8125, 0.625, 0.9375]
[4.5, -0.4375, -0.6875]
[4.75, -0.9375, -1.5625]
[-0.3125, 0.125, -1.125]
[-3.4375, -0.125, 0.0]
[-1.0625, -1.0, -0.0625]
[2.6875, -1.6875, -0.3125]
[3.4375, -0.875, -0.25]
[3.5, -0.75, 1.4375]
[2.9375, -2.625, 1.5625]
[4.875, -3.0, 0.5625]
[4.1875, -2.0, 1.6875]
[0.5625, -1.0625, 1.125]
[0.0625, -1.5625, 1.5625]
[1.875, -2.5625, 0.875]
[3.5, -1.8125, -1.875]
[3.6875, -0.125, -0.5625]
[1.75, 0.875, -0.1875]
[-0.625, 0.1875, -1.875]
[-3.0, -1.0625, -2.3125]
[-5.4375, -1.9375, -1.4375]
[-6.375, -0.9375, 0.3125]
[-2.1875, -0.25, 0.6875]
[4.875, 0.5625, -0.125]
[8.3125, 2.0625, 0.4375]
[4.875, 2.375, 3.25]
[-2.875, 0.8125, 4.3125]
[-5.4375, -0.4375, 3.0625]
[-0.25, -0.4375, 1.125]
[5.875, -1.0, -1.125]
[8.6875, -1.5, -0.625]
[12.6875, -1.625, 4.125]
[17.375, -5.25, 7.4375]
[19.75, -4.3125, 8.1875]
[10.125, 3.75, 14.0]
[-6.375, -3.625, 12.25]
[11.6875, -15.1875, -8.875]
[42.125, -36.5625, -37.5]
[31.1875, -45.8125, -15.5]
[74.5, -19.375, 10.5]
[133.3125, -6.8125, -0.125]
[143.8125, -6.125, -8.625]
[85.25, -7.6875, -10.6875]
[4.9375, -18.4375, -15.4375]
[-31.375, -27.3125, -10.875]
[-32.375, -27.6875, -19.0625]
[-24.4375, -27.1875, -30.8125]
[-6.1875, -28.375, -36.9375]
[-10.8125, -32.5625, -32.4375]
[-22.125, -31.875, -18.125]
[2.125, -26.25, -5.8125]
[20.5, -23.875, -5.0625]
[29.4375, -26.125, -13.625]
[12.875, -25.3125, -13.6875]
[-8.6875, -20.5, -11.375]
[-9.5, -19.5, -7.375]
[-0.625, -24.9375, -9.25]
[9.1875, -24.875, -11.75]
[20.25, -25.6875, -14.4375]
[25.5, -28.75, -19.4375]
[16.1875, -37.125, -25.5625]
[11.5625, -44.9375, -27.0625]
[7.5625, -46.875, -27.1875]
[10.1875, -46.625, -23.0]
[15.5625, -47.0, -20.625]
[22.625, -42.1875, -19.375]
[26.0625, -31.8125, -19.0]
[20.4375, -25.25, -12.875]
[16.3125, -22.9375, -10.0]
[10.875, -17.5625, -12.625]
[17.1875, -12.25, -12.75]
[37.25, -11.1875, -8.25]
[38.125, -10.6875, -9.0]
[18.1875, -7.3125, -9.9375]
[6.875, -2.25, -7.75]
[5.3125, 9.875, -3.4375]
[-1.6875, 15.5625, -1.9375]
[-26.0, 13.25, -10.3125]
[-62.0, 6.8125, -11.125]
[-86.75, 1.4375, -10.0]
[-65.8125, 0.9375, -7.375]
[-10.5625, 0.25, -6.3125]
[31.5625, 0.8125, -11.875]
[33.1875, -0.6875, -14.1875]
[18.5, -1.4375, -12.5]
[1.125, 0.5625, -12.25]
[-9.4375, 3.5625, -10.0]
[-13.5, 5.0, -9.1875]
[-16.0, 7.0625, -8.8125]
[-17.0625, 8.4375, -6.875]
[-11.0, 7.0, -7.625]
[-2.4375, 4.1875, -7.4375]
[0.875, 0.625, -8.375]
[0.625, -1.375, -9.5]
[4.125, -2.5, -9.625]
[9.9375, -0.8125, -11.375]
[10.5, 2.5625, -10.875]
[4.25, 4.5, -10.5625]
[-3.4375, 5.875, -10.4375]
[-9.0, 6.9375, -9.75]
[-11.0625, 7.1875, -8.8125]
[-8.8125, 6.75, -8.125]
[2.25, 7.75, -7.375]
[9.0625, 7.875, -8.6875]
[8.0, 9.3125, -9.0]
[3.5625, 9.125, -7.8125]
[1.8125, 7.875, -8.1875]
[7.5625, 7.6875, -9.625]
[10.4375, 8.25, -11.375]
[9.6875, 10.0625, -10.8125]
[16.75, 18.625, -9.625]
[17.875, 22.5625, -12.6875]
[-0.5, 19.625, -18.4375]
[-11.25, 19.75, -15.125]
[-5.75, 20.8125, -8.9375]
[-7.1875, 18.625, -9.0625]
[-20.3125, 14.125, -10.1875]
[-22.875, 9.5625, -13.6875]
[-16.1875, 6.125, -20.125]
[-12.375, 7.125, -23.0625]
[-16.625, 8.5625, -22.6875]
[-25.75, 7.5, -23.5]
[-25.375, 7.625, -24.0]
[-15.5625, 10.0625, -23.3125]
[-10.9375, 11.5625, -23.375]
[-15.625, 12.375, -23.625]
[-14.5625, 15.3125, -22.1875]
[-19.0625, 17.4375, -22.625]
[-31.3125, 17.0625, -22.6875]
[-40.875, 16.5, -22.1875]
[-37.0, 14.9375, -19.1875]
[-25.6875, 13.9375, -15.8125]
[-20.0, 11.0625, -11.3125]
[-18.75, 8.125, -11.4375]
[-15.5625, 15.5, -12.25]
[-11.9375, 20.125, -11.1875]
[-15.375, 19.0625, -7.0625]
[-13.9375, 23.5, -2.125]
[-8.375, 21.625, 0.5]
[-10.75, 18.25, 4.625]
[-23.1875, 14.25, 6.5]
[-28.0625, 14.3125, 6.6875]
[-26.6875, 16.25, 5.25]
[-24.4375, 17.0625, 7.0625]
[-22.375, 12.375, 5.1875]
[-18.25, 10.3125, 1.75]
[-6.1875, 9.6875, -1.3125]
[-2.75, 7.5, -1.875]
[-5.8125, 8.625, 2.375]
[-1.5625, 10.75, 11.3125]
[8.1875, 8.6875, 16.8125]
[14.4375, 8.625, 19.5625]
[12.9375, 11.25, 16.0625]
[1.8125, 10.75, 8.8125]
[-10.75, 10.1875, 1.4375]
[-19.625, 6.75, -5.0]
[-23.1875, 3.6875, -10.9375]
[-24.4375, 2.875, -15.0]
[-23.1875, 4.3125, -16.25]
[-26.625, 6.3125, -15.9375]
[-33.375, 6.875, -12.875]
[-33.625, 7.3125, -10.1875]
[-22.3125, 7.25, -4.6875]
[-8.4375, 6.6875, 0.75]
[-0.4375, 6.5625, 2.75]
[1.625, 3.3125, 4.6875]
[7.9375, 0.0625, 4.0]
[10.625, -3.75, 1.9375]
[3.8125, -7.25, -0.8125]
[-2.8125, -7.375, -4.4375]
[0.125, -11.0625, -5.1875]
[7.4375, -12.75, -6.625]
[18.4375, -9.125, -4.6875]
[24.125, -5.3125, -1.4375]
[17.375, -0.375, 2.0625]
[3.375, 5.5625, 2.8125]
[-11.0625, 6.875, 1.75]
[-13.5, 5.1875, -1.125]
[-6.8125, -0.5625, -3.8125]
[1.0625, -6.1875, -4.4375]
[9.5, -9.875, -6.75]
[18.375, -11.875, -8.1875]
[19.5625, -13.6875, -10.9375]
[14.0, -14.4375, -13.0]
[4.125, -12.125, -11.9375]
[-0.5625, -8.1875, -8.875]
[-1.625, -4.875, -6.625]
[0.0, -1.9375, -3.6875]
[4.625, -1.1875, -1.9375]
[7.25, -3.0625, -1.5]
[8.8125, -4.625, -1.0]
[6.0, -6.875, -2.625]
[4.4375, -8.5, -3.5625]
[7.1875, -11.125, -4.625]
[9.25, -12.9375, -5.125]
[11.5, -12.6875, -3.9375]
[11.625, -11.8125, -5.25]
[11.625, -8.375, -5.5625]
[7.75, -4.8125, -3.9375]
[3.875, -1.4375, -1.1875]
[-1.875, 0.625, -1.0]
[-6.6875, 3.9375, -0.25]
[-7.9375, 5.6875, -0.4375]
[-8.1875, 4.9375, -0.375]
[-8.3125, 1.1875, -0.5625]
[-2.8125, -3.5, -1.9375]
[3.1875, -6.9375, -3.9375]
[5.875, -6.3125, -5.0]
[3.5, -3.375, -4.875]
[-2.125, 0.625, -3.5625]
[-7.4375, 3.5625, -2.0]
[-8.1875, 7.0625, 0.6875]
[-4.375, 9.4375, 3.0]
[-4.875, 8.25, 4.0]
[-7.3125, 6.9375, 4.0625]
[-5.4375, 5.8125, 3.0625]
[-2.125, 2.75, 0.625]
[-1.625, 0.3125, -1.4375]
[-2.625, -1.8125, -1.0625]
[-4.625, -2.1875, -0.5625]
[-1.1875, 2.875, 1.1875]
[2.6875, 6.375, 3.5]
[-1.875, 6.5, 4.0625]
[-4.75, 5.4375, 4.1875]
[-3.5625, 4.125, 3.0625]
[-2.3125, 0.75, 0.6875]
[-3.4375, 0.375, -0.875]
[-2.25, 1.4375, 0.25]
[-3.3125, 0.3125, -1.875]
[-0.9375, 1.3125, -1.0625]
[1.8125, 0.8125, -0.9375]
[0.8125, -0.25, -0.0625]
[-0.9375, -0.6875, 0.625]
[0.6875, -0.75, 0.375]
[1.5625, 0.0, -0.8125]
[2.375, 1.5625, -0.1875]
[-0.625, 2.1875, 0.25]
[-3.9375, 1.6875, 0.5625]
[-5.1875, 1.5625, -0.5625]
[-2.375, 2.25, 0.125]
[-3.1875, 0.9375, 0.375]
[-4.875, 1.25, 0.75]
[2.0, 4.3125, 1.875]
[4.4375, 2.5, 1.0]
[-0.6875, 0.375, 3.375]
[-1.0, -2.25, 4.3125]
[0.8125, -5.5625, 3.8125]
[6.9375, -5.9375, 2.5625]
[8.3125, -4.375, 1.3125]
[6.0, -2.875, 1.375]
[2.375, -2.6875, 1.625]
[0.0625, -1.9375, 2.0625]
[0.9375, -0.75, 0.8125]
[1.1875, 0.8125, -1.0]
[-1.125, 2.125, -1.375]
[-1.9375, 3.25, 1.25]
[-3.3125, 2.375, 1.8125]
[-1.6875, 2.4375, 1.875]
[1.8125, 2.5, 1.25]
[2.5625, 1.625, 1.0]
[-0.0625, 2.125, 1.6875]
[-2.1875, 1.0, 2.5]
[-3.3125, -1.5, 2.1875]
[1.25, -1.6875, 1.25]
[6.4375, -1.4375, 0.0625]
[3.6875, -1.375, -0.125]
[-1.5625, -1.125, -0.8125]
[-5.125, -1.125, -0.0625]
[-5.0, -2.25, -1.3125]
[-2.0, -1.5625, -1.5]
[1.25, -0.25, -1.75]
[0.5625, 2.375, -2.0]
[-2.0625, 5.5625, -0.3125]
[-3.875, 4.5625, 0.1875]
[-7.125, 2.375, -0.375]
[-4.25, 1.8125, -0.6875]
[-2.0625, 0.5, -0.9375]
[-3.1875, 2.9375, 1.875]
[-5.4375, 3.875, 3.5]
[-2.0, 4.5625, 3.5625]
[-0.75, 3.25, 2.5625]
[-1.3125, 1.6875, 2.9375]
[-1.5, 1.0, 2.6875]
[-3.0625, 2.25, 3.4375]
[-5.3125, 4.1875, 4.25]
[-5.0, 4.4375, 3.4375]
[-1.875, 4.0, 2.8125]
[0.375, 3.6875, 1.375]
[0.9375, 4.25, 0.875]
[-2.0, 4.5, 1.75]
[-4.375, 4.3125, 2.4375]
[-3.625, 3.5625, 2.375]
[-1.0625, 3.125, 2.3125]
[0.625, 2.5, 2.5]
[-1.6875, 1.75, 2.625]
[-3.625, 1.4375, 3.0625]
[-3.5625, 2.3125, 2.0]
[-1.1875, 2.75, 0.875]
[0.3125, 2.5625, 0.3125]
[-2.0, 2.0625, -0.0625]
[-5.5625, 2.75, 0.25]
[-7.3125, 2.875, 1.125]
[-5.4375, 3.4375, 0.6875]
[1.375, 4.1875, 1.0625]
[4.375, 2.4375, 1.375]
[5.3125, -0.8125, 2.8125]
[7.4375, -3.625, 1.1875]
[12.6875, -3.5, -0.0625]
[12.0, -5.25, -0.5625]
[4.375, -5.75, -0.9375]
[0.1875, -4.5625, -3.5]
[-3.375, -1.875, -5.75]
[-7.9375, 1.375, -5.0625]
[-10.75, 4.8125, -4.125]
[-10.5625, 7.125, -2.5]
[-10.9375, 7.8125, -0.875]
[-8.0625, 6.9375, 0.4375]
[-4.8125, 4.9375, 0.8125]
[-3.5, 2.6875, 0.375]
[-4.125, 1.3125, 0.875]
[-2.5625, 1.5, 2.1875]
[0.25, 3.0625, 4.0]
[2.0625, 5.4375, 6.3125]
[3.375, 7.5, 8.1875]
[4.1875, 6.875, 7.8125]
[5.25, 6.0625, 7.8125]
[5.1875, 2.3125, 7.0625]
[2.6875, -0.75, 5.125]
[-0.1875, -0.25, 3.25]
[-5.75, 1.8125, 1.5]
[-9.5, 4.3125, 1.0]
[-12.875, 5.0, 1.125]
[-14.3125, 5.0625, 1.6875]
[-11.5, 3.8125, 2.0]
[-7.375, 1.75, 2.8125]
[-7.4375, -3.0625, 1.8125]
[-6.875, -5.6875, 1.5]
[-4.75, -3.0625, 1.875]
[-2.3125, 0.5, 1.625]
[-2.6875, 0.5, 1.875]
[-2.0, -2.0625, 2.75]
[4.625, 1.8125, 4.0625]
[7.75, 6.0625, 5.3125]
[7.1875, 6.25, 6.0]
[7.125, 3.125, 3.75]
[8.6875, -0.4375, 1.875]
[8.5, -2.9375, -0.5]
[5.5625, -1.4375, -2.875]
[3.9375, 2.125, -4.0]
[-0.1875, 2.9375, -5.5625]
[-4.3125, 2.1875, -6.6875]
[-5.3125, -0.0625, -7.75]
[-4.5, -0.9375, -6.75]
[-1.625, 0.625, -6.25]
[2.625, 2.4375, -3.625]
[2.9375, -2.0, -3.1875]
[1.5, -6.125, -3.0625]
[5.3125, -9.375, -2.8125]
[6.0, -10.125, -3.8125]
[5.75, -4.875, -3.5]
[7.125, -2.125, -1.75]
[2.0, -3.0625, -2.75]
[-1.375, -3.0, -1.8125]
[-0.875, -2.0625, -1.375]
[-0.6875, -1.0, -1.25]
[0.875, 0.125, -0.875]
[1.9375, -0.0625, -0.375]
[0.9375, -2.1875, -0.625]
[0.875, -3.875, -0.75]
[3.25, -3.1875, -0.75]
[5.75, -1.4375, -0.5625]
[2.875, -0.5, -0.4375]
[1.8125, 0.0, 0.0]
[2.8125, -0.9375, 0.1875]
[2.375, -2.125, -0.9375]
[4.875, -2.0625, -0.8125]
[4.3125, -2.0, -2.0625]
[4.0, -1.75, -2.4375]
[1.375, -2.8125, -3.375]
[1.125, -4.8125, -4.5]
[2.5625, -3.6875, -4.375]
[2.0625, -3.3125, -3.875]
[0.125, -1.625, -1.8125]
[-1.125, 0.625, 0.25]
[-1.6875, 0.8125, 2.25]
[-3.0625, 1.5, 4.4375]
[0.4375, 2.0625, 5.1875]
[1.8125, -0.5, 3.3125]
[4.125, -2.625, 2.125]
[2.75, -7.875, 1.5625]
[0.125, -14.375, 1.6875]
[-2.125, -20.6875, 1.5625]
[1.875, -26.8125, 3.3125]
[8.9375, -29.0, 4.4375]
[12.8125, -24.6875, 5.25]
[10.0625, -17.3125, 9.1875]
[-1.1875, -7.1875, 14.125]
[-9.1875, 2.375, 18.125]
[-12.0, 7.25, 21.6875]
[-11.625, 6.9375, 23.4375]
[-5.625, 5.0625, 24.125]
[0.8125, 3.875, 22.875]
[1.3125, 2.6875, 21.375]
[-8.8125, 2.5, 22.375]
[-18.1875, 2.25, 25.5]
[-21.6875, -0.375, 28.0]
[-12.625, -0.75, 27.6875]
[-0.0625, 0.5, 27.5625]
[1.375, -0.4375, 25.9375]
[-5.0, 0.0, 24.0]
[-8.125, 1.875, 24.125]
[-10.75, 3.5, 23.8125]
[-12.75, 5.625, 24.9375]
[-13.1875, 8.5, 26.5]
[-13.4375, 10.5625, 27.25]
[-16.75, 11.5625, 27.375]
[-21.9375, 10.8125, 25.75]
[-29.625, 6.9375, 22.375]
[-38.875, 9.5625, 20.375]
[-38.5625, 7.8125, 21.625]
[-33.875, 5.125, 19.75]
[-32.6875, 2.25, 16.8125]
[-29.0, -2.5, 13.125]
[-28.375, -8.5, 9.3125]
[-24.1875, -12.875, 8.0]
[-17.625, -13.3125, 10.0]
[-9.6875, -9.9375, 13.75]
[-4.75, -4.875, 17.25]
[-1.0625, 1.0625, 19.0625]
[1.5, 3.3125, 20.75]
[1.75, 4.0, 22.375]
[4.875, 3.1875, 21.625]
[8.25, 2.5, 19.75]
[6.875, 2.4375, 16.25]
[-2.375, 3.25, 13.625]
[-10.375, 3.4375, 10.75]
[-12.125, 1.125, 7.9375]
[-6.25, -4.375, 5.5625]
[1.1875, -8.4375, 2.875]
[6.3125, -9.125, 1.375]
[4.125, -10.25, 2.25]
[1.375, -9.4375, 5.875]
[1.6875, -7.625, 11.875]
[8.9375, -8.625, 15.25]
[17.25, -8.9375, 14.5625]
[20.125, -9.5625, 13.3125]
[18.75, -11.125, 10.6875]
[12.125, -12.25, 7.5]
[3.5, -14.3125, 6.75]
[-0.5, -13.4375, 8.25]
[6.625, -9.625, 5.8125]
[15.75, -6.5, 0.0625]
[10.25, -1.3125, -1.125]
[-3.1875, 2.6875, 1.25]
[-10.375, 5.9375, 1.8125]
[-7.0, 9.875, 0.5625]
[-2.0625, 12.4375, 1.0]
[-1.4375, 12.25, -0.0625]
[-5.375, 12.0625, -0.5]
[-6.75, 12.75, -0.0625]
[-4.125, 13.25, -2.375]
[-2.375, 11.6875, -5.3125]
[-1.5625, 9.75, -8.6875]
[-2.6875, 10.8125, -13.0]
[-8.875, 14.125, -12.6875]
[-9.6875, 13.8125, -8.3125]
[-6.75, 12.125, -6.5625]
[-0.875, 10.5625, -9.25]
[1.625, 10.125, -9.75]
[2.25, 8.625, -9.875]
[2.875, 7.4375, -7.8125]
[4.25, 6.625, -6.125]
[1.3125, 5.3125, -2.5625]
[0.0, 2.0625, -1.8125]
[2.4375, -2.125, -3.875]
[3.8125, -5.1875, -7.9375]
[1.625, -7.75, -8.625]
[-3.4375, -9.4375, -7.1875]
[-5.8125, -8.75, -2.8125]
[-5.1875, -6.9375, -0.1875]
[-2.3125, -3.5625, 1.9375]
[-5.4375, -1.875, 1.9375]
[-5.8125, -1.5, 3.9375]
[-8.25, -0.1875, 6.875]
[-8.625, -1.4375, 5.6875]
[-11.4375, -2.3125, 4.75]
[-16.125, -1.0625, 6.0]
[-14.0, 1.4375, 8.625]
[-10.125, 3.6875, 7.9375]
[-8.0, 5.75, 6.9375]
[-11.1875, 6.9375, 7.0]
[-16.6875, 5.8125, 6.1875]
[-18.9375, 5.75, 7.1875]
[-18.9375, 6.1875, 6.5625]
[-18.0625, 5.875, 5.5]
[-19.9375, 5.9375, 4.1875]
[-17.3125, 5.5625, 2.5625]
[-13.75, 5.0, 0.9375]
[-12.1875, 6.0625, 1.4375]
[-11.75, 7.375, 4.0]
[-16.125, 7.625, 7.1875]
[-16.625, 8.625, 9.375]
[-14.9375, 11.6875, 10.6875]
[-11.3125, 16.0, 11.75]
[-11.625, 16.9375, 12.625]
[-14.0, 15.4375, 11.75]
[-14.5, 12.9375, 10.6875]
[-12.75, 10.75, 9.375]
[-7.875, 9.75, 8.3125]
[-3.625, 6.9375, 5.875]
[-1.25, 4.0625, 4.0625]
[-0.4375, 1.6875, 3.0]
[-2.0, -1.125, 1.625]
[-3.0625, -2.6875, 1.5625]
[0.0625, -3.0625, 2.875]
[5.6875, -2.75, 1.0]
[8.5, -2.4375, -1.5625]
[5.75, -2.375, -4.4375]
[2.75, -2.3125, -7.1875]
[2.0625, -1.375, -9.0]
[1.25, -1.5, -10.5]
[1.875, -0.4375, -11.6875]
[0.875, 0.9375, -9.3125]
[0.5, 1.25, -9.0625]
[-2.9375, 1.0, -6.0]
[-2.0625, -0.9375, -3.375]
[2.3125, -1.875, -2.625]
[8.0, -2.9375, -3.625]
[7.75, -2.9375, -5.25]
[2.5, -3.3125, -4.8125]
[-0.8125, -4.3125, -6.6875]
[-2.375, -4.25, -5.875]
[1.5, -2.0625, -3.75]
[6.5625, 1.5, -1.125]
[5.75, 2.75, 0.25]
[1.875, 2.5, -0.5]
[-1.4375, 3.6875, 0.875]
[-1.875, 5.125, 2.875]
[3.0625, 4.875, 2.0625]
[8.4375, 3.875, 0.4375]
[8.75, 2.0625, -1.0]
[2.625, -0.0625, -1.625]
[-3.375, -0.875, -2.375]
[-3.1875, -1.1875, -4.0]
[-1.75, -0.875, -6.75]
[3.125, 0.75, 0.0]
[10.0625, -4.5, 7.3125]
[13.625, -11.125, 13.125]
[21.375, -14.4375, 16.5625]
[30.0, -13.875, 17.125]
[34.5, -8.1875, 17.625]
[36.875, -1.5, 15.625]
[31.1875, 4.5, 4.375]
[19.75, 10.6875, -6.5]
[-3.5, 16.375, -11.25]
[-25.875, 17.0625, -12.0625]
[-34.6875, 15.5, -12.875]
[-30.375, 15.75, -6.875]
[-16.875, 16.25, -2.0]
[-5.3125, 18.875, 1.4375]
[-2.125, 20.0625, 1.125]
[-8.5, 22.1875, -1.9375]
[-13.8125, 23.5, -5.9375]
[-9.625, 19.3125, -10.4375]
[-7.4375, 11.0625, -15.9375]
[-1.5, 12.5, -23.4375]
[-1.5, 16.5, -27.625]
[-10.3125, 21.4375, -31.625]
[-14.0, 26.875, -34.4375]
[-13.4375, 25.875, -35.875]
[1.625, 25.25, -43.25]
[10.75, 23.5, -49.3125]
[-1.0, 16.8125, -56.75]
[-7.4375, 6.875, -59.9375]
[-12.4375, -8.1875, -52.875]
[-13.125, -24.125, -46.0625]
[-11.0625, -25.25, -48.1875]
[-35.3125, -5.375, -50.6875]
[-53.5, 8.5625, -40.25]
[-55.125, -1.375, -18.8125]
[-44.125, -18.625, 8.8125]
[-64.1875, 3.75, 1.6875]
[-58.25, 16.125, -4.875]
[-38.125, 36.8125, -2.5625]
[-37.4375, 52.5625, 0.6875]
[-38.5, 55.6875, 4.0625]
[-32.125, 59.1875, 5.4375]
[-23.375, 59.9375, 6.1875]
[-18.6875, 59.25, 6.75]
[-23.125, 50.25, 8.4375]
[-8.0, 50.3125, 7.875]
[22.4375, 53.5625, 9.25]
[43.8125, 48.6875, 7.9375]
[39.4375, 42.0, 1.9375]
[7.125, 31.3125, -7.5]
[-3.25, 30.125, -13.875]
[-5.625, 31.5, -16.0]
[-8.625, 34.5, -25.6875]
[-7.0625, 38.125, -28.625]
[0.9375, 37.875, -20.75]
[-1.9375, 33.3125, -16.1875]
[-2.3125, 30.875, -15.0625]
[4.125, 30.6875, -10.0625]
[6.125, 31.125, 3.4375]
[6.5, 26.625, 14.4375]
[6.1875, 22.0625, 22.0625]
[-1.3125, 12.0625, 27.625]
[-4.5625, 17.625, 26.6875]
[8.0625, 33.75, 28.875]
[34.6875, 26.0, 39.4375]
[-8.25, 13.875, 34.0625]
[-26.5625, 4.9375, 10.3125]
[-3.5625, 9.25, 13.5]
[1.5625, 12.9375, 26.8125]
[-7.25, 13.6875, 29.9375]
[-6.5625, 10.0625, 22.4375]
[5.625, 8.375, 23.875]
[13.0625, 9.25, 26.8125]
[20.0625, 4.0, 23.6875]
[29.8125, -2.0625, 28.625]
[29.375, -5.125, 29.0]
[20.3125, -4.5, 19.5625]
[11.4375, -2.125, 13.375]
[1.375, -0.6875, 14.375]
[-9.375, -2.6875, 9.4375]
[-6.625, -3.125, 4.0]
[1.0625, -2.3125, 0.625]
[4.75, -2.6875, -0.9375]
[2.0, -1.5625, 0.3125]
[-3.0, -1.75, 2.375]
[-3.3125, -2.9375, 2.625]
[4.875, -1.9375, 1.25]
[7.375, -2.0, 1.3125]
[6.1875, -4.3125, 0.3125]
[10.5, -8.5625, 0.4375]
[15.0, -10.5, 1.625]
[12.75, -11.5625, 2.875]
[4.8125, -8.25, -4.4375]
[1.8125, -4.0, -9.375]
[2.375, -2.0, -8.4375]
[3.75, -3.8125, -9.0625]
[6.625, -4.25, -11.375]
[13.3125, -6.25, -12.875]
[17.5625, -8.6875, -16.1875]
[16.875, -9.125, -21.1875]
[8.1875, -10.5625, -20.6875]
[4.1875, -11.625, -17.8125]
[3.3125, -11.8125, -18.125]
[11.0625, -13.125, -21.0]
[16.5625, -15.4375, -19.25]
[16.25, -18.8125, -16.25]
[15.875, -22.9375, -13.5625]
[17.0625, -23.5625, -13.5625]
[20.8125, -17.5, -13.375]
[17.3125, -11.5625, -8.4375]
[18.3125, -9.6875, -7.9375]
[16.5625, -14.8125, -12.125]
[14.875, -14.75, -11.0625]
[9.125, -11.875, -5.375]
[9.3125, -10.125, -6.5625]
[14.875, -10.1875, -7.5625]
[22.0625, -10.125, -3.9375]
[20.6875, -13.9375, -1.125]
[16.625, -12.5625, -3.25]
[13.4375, -8.75, -6.0]
[13.5625, -5.5625, -6.375]
[11.9375, -5.4375, -6.3125]
[9.0625, -7.375, -6.5625]
[9.875, -10.3125, -7.0]
[12.1875, -11.6875, -4.625]
[-3.875, -9.0625, -4.4375]
[-8.9375, -8.125, -4.625]
[16.3125, -7.8125, -5.8125]
[41.0625, -20.1875, -1.375]
[-60.0625, -16.25, -11.1875]
[-87.3125, -12.75, -11.5625]
[-54.0, -14.0, -9.8125]
[9.5, -19.5625, -17.125]
[38.5, -20.125, -19.3125]
[29.625, -13.5625, -17.8125]
[20.0, -4.5625, -9.125]
[3.5, -6.875, -13.0625]
[7.5, -11.9375, -15.125]
[21.875, -9.625, -10.5625]
[41.3125, -6.25, -9.6875]
[41.125, -5.6875, -8.3125]
[21.625, -7.9375, -12.125]
[15.9375, -10.0, -13.375]
[20.9375, -10.9375, -13.375]
[28.9375, -9.5625, -12.5625]
[36.125, -8.875, -9.125]
[35.9375, -9.75, -7.0]
[29.4375, -10.6875, -6.375]
[21.875, -9.125, -5.6875]
[13.25, -8.6875, -4.8125]
[10.4375, -7.1875, -5.125]
[14.0, -4.8125, -3.875]
[16.1875, -5.4375, -4.25]
[13.875, -3.875, -6.625]
[8.875, -1.875, -5.5]
[7.375, -2.5, -4.1875]
[8.1875, -1.4375, -5.0625]
[3.8125, -2.125, -3.6875]
[-2.3125, -1.5625, -0.4375]
[-5.1875, -0.625, 1.375]
[-2.1875, 1.25, 3.25]
[-0.75, 1.0625, 5.375]
[-0.1875, 2.9375, 4.1875]
[-3.875, 4.625, 4.375]
[-8.8125, 6.3125, 5.375]
[-11.6875, 8.6875, 6.5625]
[-13.6875, 9.625, 8.0]
[-13.9375, 11.1875, 6.6875]
[-16.25, 12.3125, 5.5625]
[-19.25, 13.125, 6.125]
[-22.1875, 15.5, 8.25]
[-21.6875, 16.125, 8.8125]
[-18.3125, 16.875, 8.625]
[-16.6875, 16.9375, 8.125]
[-20.875, 17.5, 9.8125]
[-25.125, 18.125, 11.3125]
[-26.1875, 18.125, 13.9375]
[-21.125, 17.8125, 13.3125]
[-14.3125, 17.0625, 11.8125]
[-11.875, 16.75, 11.25]
[-14.375, 15.8125, 14.5]
[-18.25, 15.5625, 16.875]
[-19.875, 14.375, 17.75]
[-17.3125, 13.1875, 15.6875]
[-17.0, 12.9375, 13.875]
[-18.0625, 13.25, 12.6875]
[-20.0625, 13.25, 13.125]
[-20.8125, 12.8125, 12.9375]
[-20.625, 11.3125, 11.75]
[-17.25, 10.75, 10.8125]
[-14.5625, 9.125, 9.3125]
[-10.9375, 8.8125, 9.375]
[-9.8125, 8.3125, 9.75]
[-9.8125, 7.5625, 11.5625]
[-12.0625, 6.625, 8.8125]
[-9.0625, 5.6875, 6.0625]
[-6.625, 4.3125, 6.25]
[-4.6875, 4.875, 4.4375]
[-5.6875, 6.0, 3.125]
[-7.5625, 4.0625, 2.0]
[-8.5, 2.6875, -0.375]
[-8.25, 1.5, -1.5625]
[-6.4375, 0.5, -2.1875]
[-3.6875, -0.4375, -3.9375]
[-1.625, 0.25, -5.875]
[-2.5625, -0.8125, -6.5]
[-5.375, -2.1875, -6.25]
[-4.375, -2.3125, -7.375]
[-1.625, -2.4375, -7.75]
[4.1875, -3.4375, -8.125]
[6.6875, -5.4375, -7.875]
[7.3125, -4.6875, -8.6875]
[5.0625, -4.875, -7.625]
[4.75, -4.5625, -9.5625]
[9.75, -3.625, -9.6875]
[9.1875, -5.4375, -8.6875]
[5.0625, -6.25, -14.5]
[1.125, -5.8125, -15.8125]
[-1.0, -6.3125, -15.4375]
[-0.625, -6.375, -16.5625]
[6.1875, -5.625, -16.5]
[11.6875, -7.1875, -15.9375]
[16.875, -7.3125, -16.25]
[16.0625, -5.125, -16.0]
[8.75, -5.8125, -14.3125]
[5.6875, -6.1875, -13.0625]
[7.0625, -7.0, -13.0625]
[13.125, -7.25, -12.625]
[16.3125, -8.8125, -13.25]
[18.1875, -7.9375, -13.8125]
[17.25, -8.4375, -14.0]
[17.375, -7.625, -15.25]
[13.125, -7.375, -13.6875]
[9.0, -6.5625, -14.0625]
[4.4375, -8.625, -13.875]
[5.625, -8.25, -14.625]
[7.125, -8.0625, -14.8125]
[9.0625, -7.625, -13.9375]
[9.25, -7.375, -13.875]
[11.125, -6.1875, -12.25]
[8.875, -6.75, -11.6875]
[8.0, -7.1875, -10.9375]
[6.375, -7.0625, -10.1875]
[7.4375, -7.75, -8.0]
[5.1875, -7.5, -6.9375]
[7.75, -7.0, -7.0625]
[9.625, -7.25, -3.8125]
[10.25, -6.3125, -4.5625]
[9.4375, -3.625, -5.6875]
[6.0, -2.125, -2.1875]
[0.8125, -0.875, -4.5]
[-1.25, 0.8125, -5.0]
[-0.1875, 1.25, -4.4375]
[-0.3125, 0.8125, -6.4375]
[-0.3125, 2.375, -5.375]
[-1.3125, 2.3125, -5.625]
[-0.375, 3.375, -4.4375]
[-3.125, 1.875, -2.625]
[-1.0, 1.0, -3.3125]
[-0.75, -0.4375, -4.125]
[2.1875, -1.4375, -4.125]
[1.625, -2.9375, -3.9375]
[0.875, -3.375, -4.4375]
[-0.75, -2.1875, -3.5625]
[-0.25, -2.6875, -2.25]
[3.625, -1.8125, -2.125]
[4.4375, -1.3125, -1.375]
[2.3125, -1.625, -2.1875]
[0.75, -1.75, -3.0]
[-0.5625, -0.75, -2.625]
[2.6875, 0.625, -3.5625]
[4.0, 0.5625, -3.25]
[4.3125, 0.9375, -4.875]
[1.25, -0.3125, -4.625]
[-0.875, -0.5625, -5.125]
[-1.375, -0.9375, -3.6875]
[0.125, -1.1875, -3.625]
[3.9375, 0.0, -5.0]
[4.3125, -0.625, -3.4375]
[2.0625, -0.6875, -3.4375]
[0.0625, -0.5625, -4.0625]
[-3.4375, -0.9375, -2.75]
[-0.6875, -0.375, -4.4375]
[-1.1875, -0.1875, -5.4375]
[-0.3125, -0.4375, -5.5625]
[-1.25, -0.1875, -3.0]
[-4.3125, -0.9375, -4.375]
[-5.0625, -0.4375, -5.4375]
[-0.0625, -0.125, -2.9375]
[1.9375, -0.125, -3.125]
[3.875, -0.0625, -4.4375]
[3.5625, -0.9375, -3.3125]
[2.6875, -2.0, -1.875]
[2.875, -3.1875, -2.8125]
[1.875, -2.9375, -4.1875]
[2.3125, -2.5, -2.4375]
[4.125, -2.25, -2.0625]
[4.0625, -3.0, -4.0]
[3.875, -3.5, -3.75]
[3.75, -3.0, -3.125]
[1.5, -2.6875, -4.125]
[0.375, -2.0, -5.0625]
[6.75, 0.625, -3.25]
[5.375, -2.125, -3.3125]
[5.625, -2.125, -7.0625]
[3.5, -2.4375, -6.0625]
[4.125, -2.0, -5.6875]
[7.75, -1.625, -6.25]
[8.6875, -2.0, -5.1875]
[7.875, -3.6875, -3.5625]
[5.1875, -4.5625, -4.4375]
[6.5, -4.8125, -5.4375]
[8.3125, -5.0, -4.4375]
[10.4375, -4.625, -3.8125]
[9.25, -4.5, -3.5625]
[7.5, -4.9375, -3.6875]
[6.9375, -5.5, -3.625]
[6.9375, -5.0, -3.9375]
[7.5625, -4.5625, -3.1875]
[6.4375, -4.5, -3.6875]
[1.5, -4.75, -3.5]
[-3.5, -3.625, -1.75]
[-1.375, -3.6875, -2.4375]
[-0.9375, -7.875, -1.8125]
[-16.5625, -7.875, -0.375]
[-28.625, -7.125, -1.0625]
[-21.375, -6.6875, -1.4375]
[-7.4375, -5.3125, 0.875]
[-2.25, -2.9375, 1.5]
[-8.8125, -1.75, -2.0]
[-14.375, 1.1875, -1.0625]
[-13.8125, 4.1875, 4.4375]
[-12.3125, 9.5625, 3.8125]
[-0.375, 13.625, 1.875]
[7.6875, 15.0, 2.625]
[8.0625, 15.0, 3.5625]
[-1.0, 16.625, 12.1875]
[-2.8125, 14.5, 22.75]
[2.5625, 15.25, 23.5]
[2.5, 18.0625, 15.5]
[22.9375, 18.6875, 12.5625]
[31.0, 15.0625, 13.1875]
[27.125, 9.6875, 15.5]
[19.4375, 6.0, 17.1875]
[1.9375, 4.1875, 16.0625]
[-3.625, 2.125, 15.1875]
[0.625, -1.75, 12.4375]
[4.25, -8.0, 10.5]
[-3.25, -11.4375, 8.3125]
[-12.875, -5.0, -6.75]
[-23.75, -2.6875, -13.375]
[-15.3125, -6.875, -3.875]
[-5.0625, -4.5, -5.8125]
[-7.75, 4.625, -10.25]
[-9.5, 7.625, -3.1875]
[-7.0, 2.1875, 5.875]
[-15.25, 0.75, 4.375]
[-6.8125, 1.5625, -0.1875]
[18.3125, 5.1875, 2.25]
[35.4375, 14.0, 0.8125]
[29.1875, 15.5625, -5.125]
[4.25, 9.6875, -1.75]
[-10.8125, 8.0, 2.4375]
[-16.4375, 8.1875, 1.4375]
[-4.5, 9.3125, -1.875]
[12.0, 8.125, -2.0625]
[12.0, 5.5, -0.0625]
[5.6875, 1.875, 3.8125]
[-10.1875, -2.8125, 9.3125]
[-26.6875, -10.25, 14.4375]
[-36.375, -13.875, 21.25]
[-39.8125, -14.0625, 22.0625]
[-29.0625, 0.625, 21.625]
[-1.3125, 16.75, 23.3125]
[28.875, 26.5625, 30.5]
[26.6875, 30.875, 29.5625]
[2.75, 26.625, 45.4375]
[0.75, 22.75, 48.8125]
[-10.375, 17.125, 37.875]
[10.4375, 8.0, 27.5]
[33.9375, -2.6875, 20.9375]
[13.875, -6.5, 11.75]
[-21.8125, -7.5625, -0.375]
[-37.625, -7.9375, -7.0]
[-33.8125, -3.75, -15.25]
[-11.625, -11.1875, -13.4375]
[1.875, -14.5, -11.3125]
[1.0625, -13.6875, -14.0]
[2.6875, -6.3125, -2.6875]
[-11.875, 3.5625, 3.5625]
[-17.1875, 5.1875, -0.1875]
[-7.3125, 2.4375, -4.25]
[6.0625, 2.8125, -5.375]
[0.375, 3.75, -2.625]
[-5.0625, 4.8125, 1.875]
[-4.625, 3.4375, 1.375]
[-0.6875, 3.1875, -0.4375]
[3.125, 4.9375, -0.1875]
[6.4375, 6.75, 0.6875]
[5.5, 5.5625, -0.875]
[4.4375, 5.3125, -0.8125]
[4.6875, 6.3125, 2.1875]
[0.875, 7.9375, -0.4375]
[3.9375, 3.8125, 1.3125]
[-2.1875, 2.125, 2.0]
[-2.125, 1.625, 0.3125]
[1.625, 1.375, 0.875]
[2.25, 1.25, -1.4375]
[1.625, 1.9375, -1.625]
[-2.5, 0.8125, -1.8125]
[-2.0, -1.75, -1.1875]
[-4.875, -1.4375, -0.5625]
[-1.6875, -1.0, 0.0]
[1.9375, 0.375, 1.1875]
[4.875, 1.75, 0.1875]
[4.9375, 3.75, -1.125]
[1.125, 0.9375, -1.0]
[-2.75, -1.0, -0.25]
[-1.25, -0.6875, -0.5625]
[0.75, 0.5, -0.9375]
[1.6875, 1.75, -1.875]
[1.6875, 1.3125, -2.1875]
[0.3125, 0.1875, -0.5625]
[-1.0625, 0.5, -0.5625]
[1.1875, 2.375, -0.25]
[5.0625, 3.9375, -0.625]
[5.75, 3.625, -2.3125]
[5.25, 1.75, -1.25]
[1.9375, -1.3125, 2.0]
[-3.5625, -1.5, 0.3125]
[-2.1875, -1.1875, 1.0625]
[0.6875, -1.0625, 0.1875]
[2.9375, -1.3125, -1.375]
[1.4375, -1.3125, -1.8125]
[-2.125, -1.8125, -1.5]
[-5.25, -1.5625, -1.375]
[-4.5625, -1.0, -0.0625]
[-0.125, -0.125, -0.4375]
[5.4375, -0.9375, -0.125]
[2.9375, -0.75, -0.25]
[-0.9375, -0.1875, -0.75]
[-1.375, 0.5, -0.125]
[-1.0, 1.25, -0.125]
[1.3125, 1.625, -0.5]
[1.0, 1.3125, -0.125]
[1.4375, 1.375, 0.0]
[1.0625, 1.4375, -0.4375]
[1.75, 2.0625, -0.25]
[1.4375, 2.4375, -0.5625]
[-1.0, 2.625, -0.1875]
[-1.125, 1.1875, 0.125]
[-0.5625, 0.3125, 0.3125]
[-1.3125, 0.875, -0.75]
[-0.1875, 0.875, 0.3125]
[-0.375, 1.1875, 0.5]
[-0.5625, 2.375, -0.6875]
[-0.375, 2.375, -0.0625]
[-0.125, 1.9375, -0.5625]
[0.875, 2.0625, 0.5625]
[0.625, 1.75, 0.8125]
[3.5, 4.3125, -4.625]
[5.1875, 4.4375, -4.4375]
[1.75, 3.5625, -6.0]
[-1.125, 5.0625, -5.9375]
[-1.0625, -2.75, -0.875]
[4.75, -2.0, -2.1875]
[8.625, 0.75, 0.5625]
[4.625, 1.375, 3.6875]
[-3.875, 1.375, 5.6875]
[-6.0625, 0.125, 7.3125]
[2.5625, -2.875, 10.875]
[2.5625, -2.875, 10.875]
[-7.875, 3.3125, -4.5625]
[-7.0625, 4.0, -7.75]
[-6.0625, 0.125, 7.3125]
[2.5625, -2.875, 10.875]
[12.0625, -5.0625, 14.4375]
[13.9375, -4.125, 15.3125]
[2.1875, -2.0, 15.4375]
[0.3125, 2.0, 11.5625]
[-3.5, -2.5, 8.9375]
[-0.9375, -3.4375, 5.6875]
[2.9375, -2.0, 3.5625]
[5.0, -1.3125, 3.3125]
[4.875, -0.5625, 3.0]
[0.6875, 0.8125, 1.3125]
[-1.375, 0.5625, -1.125]
[3.9375, 0.25, -2.4375]
[9.5, 0.625, -1.375]
[9.0625, -0.75, 0.6875]
[6.9375, -7.375, 4.0625]
[0.4375, -13.625, 5.6875]
[-4.75, -17.0625, 5.0]
[-2.875, -18.875, 0.6875]
[4.625, -24.375, 0.1875]
[1.3125, -21.5, 3.0625]
[-12.0625, -14.8125, 5.3125]
[-29.3125, -10.6875, 3.375]
[-36.5625, -6.75, 4.5625]
[-28.6875, 0.3125, 5.375]
[-8.9375, 2.0625, -5.875]
[16.5, -1.8125, -21.625]
[48.4375, -2.0625, -23.625]
[85.125, 5.75, -20.0625]
[102.375, 5.8125, -3.625]
[59.8125, 12.5, 7.5625]
[-7.125, 4.125, 16.0]
[-46.8125, 1.875, 16.75]
[-39.0, 3.9375, 3.3125]
[-8.8125, 5.3125, -5.1875]
[13.875, 6.0625, -5.9375]
[17.0, 9.9375, -3.9375]
[0.375, 8.5, -0.25]
[-22.875, 6.375, 3.25]
[-32.6875, 5.3125, 1.875]
[-28.375, 2.3125, -0.1875]
[-18.9375, 1.25, 1.0]
[-10.6875, 2.3125, 1.3125]
[-2.0625, 1.625, -1.375]
[0.75, 1.3125, -4.3125]
[-0.1875, 2.5625, -3.875]
[-0.9375, 2.9375, -1.8125]
[0.875, 2.3125, -1.8125]
[4.625, -0.8125, -6.1875]
[1.625, 2.0, -9.1875]
[-3.1875, 0.5625, -3.8125]
[-8.0625, -8.875, 2.4375]
[-21.8125, -2.375, 1.9375]
[-28.5, 7.3125, -1.5]
[-17.5, 21.9375, -4.8125]
[-13.8125, 36.25, -7.8125]
[-14.625, 46.375, -13.0625]
[-21.9375, 57.75, -9.6875]
[-19.1875, 75.1875, -5.3125]
[-12.125, 96.1875, -6.0]
[-8.25, 109.125, -5.5625]
[-6.1875, 118.0625, -10.0625]
[-5.125, 123.375, -16.5]
[-5.4375, 121.125, -20.25]
[11.0, 121.1875, -26.4375]
[33.75, 117.4375, -24.25]
[39.0, 118.625, -37.0625]
[31.375, 117.375, -49.0625]
[38.625, 102.1875, -53.375]
[68.8125, 77.875, -65.625]
[87.5625, 49.5625, -80.4375]
[90.0625, 25.75, -88.4375]
[74.0, 2.9375, -79.8125]
[42.0625, -18.75, -65.5]
[21.9375, -36.0, -61.5]
[14.5, -40.375, -59.125]
[18.1875, -40.5, -46.5]
[30.9375, -40.9375, -34.125]
[42.0625, -45.0625, -33.375]
[47.625, -47.3125, -35.875]
[41.3125, -44.75, -30.1875]
[33.8125, -38.4375, -19.5]
[35.375, -32.3125, -12.6875]
[34.125, -27.4375, -13.0625]
[27.625, -26.4375, -15.375]
[15.875, -29.3125, -15.25]
[10.75, -29.0625, -14.6875]
[5.8125, -30.6875, -11.75]
[1.875, -28.375, -8.0]
[12.5, -23.4375, -3.0625]
[32.5625, -18.0625, 0.625]
[43.5625, -15.375, 0.25]
[41.4375, -13.0625, -3.0]
[32.125, -11.375, -2.4375]
[25.3125, -9.6875, -0.0625]
[22.5, -4.3125, 1.8125]
[26.0, 1.5, 2.5]
[31.875, 0.4375, 2.6875]
[28.125, -3.25, 0.8125]
[22.3125, -6.625, -4.3125]
[29.125, -8.4375, -5.25]
[36.9375, -5.9375, -8.375]
[39.5625, -3.0, -8.125]
[14.8125, -5.0625, -3.0625]
[-7.5, -6.0, -3.25]
[-3.375, -6.5, -5.4375]
[4.8125, -5.5, -6.375]
[6.8125, -2.875, -7.3125]
[-4.9375, -4.0625, -4.625]
[-15.6875, -5.625, -2.6875]
[-9.875, -8.1875, -0.8125]
[5.1875, -4.0625, -1.875]
[13.0, -1.125, 0.6875]
[5.6875, -3.8125, 1.75]
[0.5, -5.75, -0.0625]
[3.1875, -6.0, -0.6875]
[6.875, -4.5625, -0.3125]
[9.6875, -5.625, -1.0625]
[13.0625, -3.75, -1.875]
[16.0625, -0.0625, 0.0625]
[14.875, 0.3125, 3.375]
[12.125, -2.375, 3.5625]
[12.1875, -3.9375, 2.3125]
[16.0625, -4.25, 2.875]
[17.6875, -3.875, 1.0]
[20.0625, -7.8125, 1.0625]
[6.4375, -11.25, -0.625]
[-2.875, -11.75, -5.625]
[-3.8125, -10.125, -6.6875]
[4.0625, -4.25, -0.4375]
[17.3125, -4.0625, 6.0625]
[18.6875, -6.125, 11.75]
[32.4375, -9.25, 8.3125]
[50.3125, -11.6875, 1.25]
[49.9375, -13.0625, 0.0625]
[31.375, -13.6875, -0.5]
[15.4375, -14.4375, 4.0]
[1.25, -10.75, 7.3125]
[-0.6875, -5.9375, 4.6875]
[3.0625, -2.75, -0.5]
[-6.375, 1.25, -6.25]
[-13.875, 3.3125, -11.5]
[-27.25, 6.3125, -11.0]
[-39.3125, 11.0, -11.5]
[-37.8125, 17.5, -8.5625]
[-40.875, 22.75, -8.875]
[-52.125, 19.375, -10.3125]
[-54.5, 13.5, -8.375]
[-37.5, 10.0625, -10.75]
[-17.3125, 22.0625, -1.5]
[9.0625, 30.0625, 2.1875]
[14.375, 22.0625, 1.75]
[4.4375, 14.8125, 5.875]
[1.375, -2.8125, 12.625]
[10.0, -9.75, 13.25]
[24.1875, -6.75, 11.3125]
[41.0, -3.9375, 6.0]
[44.1875, -5.0625, 0.0625]
[19.6875, -11.75, 4.8125]
[4.3125, -16.4375, 7.25]
[11.1875, -13.25, 1.875]
[19.8125, -0.5625, -1.875]
[23.375, 16.0625, 1.75]
[5.6875, 15.125, 6.875]
[-6.25, 12.125, 6.125]
[-9.4375, 6.25, 7.6875]
[8.5625, 1.375, 3.0]
[35.625, 2.6875, -1.0625]
[41.0, 1.5625, 2.625]
[22.125, -8.0625, 7.0625]
[3.125, -16.625, 0.5625]
[10.8125, -15.1875, -5.125]
[29.5625, -7.3125, -2.4375]
[29.0625, -4.3125, 1.9375]
[18.8125, -3.6875, 2.8125]
[15.0625, 0.3125, -2.9375]
[-3.6875, -0.1875, -7.4375]
[-16.875, -3.3125, -11.6875]
[-19.5625, -3.875, -9.625]
[-24.625, -4.125, -7.875]
[-21.6875, -4.8125, -8.9375]
[-9.9375, -10.1875, -7.9375]
[7.8125, -12.8125, -7.6875]
[19.8125, -8.0625, -8.9375]
[22.625, -6.0625, -0.375]
[25.1875, -7.25, 2.8125]
[25.9375, -10.375, 3.0]
[15.8125, -9.8125, 1.375]
[28.0, -5.1875, -3.5]
[32.5, -7.25, 0.8125]
[21.6875, -5.5625, 0.125]
[6.3125, 1.875, 3.125]
[-5.9375, 9.1875, 6.9375]
[-4.4375, 15.25, 9.0]
[3.625, 18.75, 12.5]
[5.625, 21.8125, 17.8125]
[9.6875, 19.75, 18.0625]
[18.625, 24.5, 18.0]
[9.9375, 32.8125, 21.0]
[4.9375, 32.8125, 26.625]
[19.0, 32.5, 24.25]
[1.25, 16.75, 18.5625]
[-2.875, 5.375, 5.125]
[45.375, 14.0625, -7.0]
[-4.75, -12.25, 0.3125]
[-19.625, -28.875, -14.6875]
[-17.4375, -27.6875, -20.5]
[8.8125, -12.0, -20.0625]
[8.1875, -1.0625, -10.5]
[-13.1875, 2.75, -4.375]
[-17.9375, 7.0, -1.375]
[-5.625, 7.1875, -4.6875]
[1.625, 8.5, -3.6875]
[-11.75, 8.8125, 1.5]
[-27.0625, 5.6875, 2.1875]
[-31.3125, 6.8125, -0.5625]
[-29.5, 8.375, 0.25]
[-11.625, 9.5, 2.125]
[1.6875, 7.3125, 3.6875]
[3.0625, 1.1875, 3.8125]
[6.375, -3.5, 5.3125]
[13.5, -5.3125, 5.375]
[14.1875, -9.0625, 4.5]
[16.8125, -7.1875, 4.0625]
[16.1875, -2.8125, 6.75]
[10.375, -0.1875, 6.3125]
[10.5625, 3.6875, 8.75]
[7.0625, 2.0625, 11.0625]
[14.75, 0.125, 6.25]
[20.6875, -0.6875, 2.5]
[14.0, -2.375, -0.3125]
[-0.8125, -8.0, -2.3125]
[-11.0625, -12.5625, -4.75]
[-6.5625, -13.1875, -5.3125]
[1.1875, -13.6875, -7.25]
[1.0625, -13.8125, -9.4375]
[2.875, -10.5625, -6.1875]
[5.1875, -8.875, -3.75]
[8.0625, -8.875, -5.3125]
[9.4375, -3.25, -6.4375]
[12.875, 2.6875, -1.625]
[0.1875, -1.25, -3.0]
[-6.5, -5.1875, -6.375]
[-0.9375, -7.6875, -7.125]
[4.5, -6.8125, -6.9375]
[2.0, -4.0, -5.6875]
[-5.4375, -1.625, -4.3125]
[-9.8125, -0.5, -2.9375]
[-1.5625, 1.0625, -1.375]
[6.5625, 1.0625, 1.0]
[10.0625, 1.9375, 1.6875]
[16.9375, 3.25, 3.5625]
[12.375, -1.3125, 2.875]
[8.4375, -4.875, -0.8125]
[10.75, -2.375, -1.6875]
[9.4375, 1.5, 1.625]
[2.8125, 0.6875, 2.9375]
[0.8125, -1.0625, 2.0625]
[8.625, 2.5, -1.1875]
[11.625, 8.5, 2.6875]
[8.0625, 8.875, 5.4375]
[1.1875, 4.9375, 5.4375]
[4.8125, 0.1875, 3.375]
[14.3125, -1.1875, 1.75]
[24.125, -0.4375, 1.625]
[14.25, -3.75, -0.25]
[-2.3125, -9.8125, -2.0]
[-4.375, -9.375, -4.4375]
[3.75, -1.75, -1.75]
[5.4375, 0.25, -1.25]
[-5.0625, -2.125, -2.6875]
[-5.6875, -5.125, -2.375]
[1.0, -7.375, -3.25]
[3.0, -7.0, -3.125]
[8.5625, -1.0625, 2.1875]
[9.125, 1.5, 5.625]
[2.9375, 0.4375, 3.6875]
[2.125, 0.0, 1.5625]
[8.25, -0.9375, 1.25]
[11.375, -1.25, 0.5]
[9.5, -1.75, 0.5625]
[7.0, -2.0, 0.8125]
[6.4375, -2.1875, 1.0625]
[7.1875, -3.5, 0.4375]
[19.8125, -7.375, -0.5625]
[34.375, -12.0625, -3.1875]
[29.5625, -28.375, -6.3125]
[26.5625, -36.625, -11.875]
[48.1875, -35.1875, -13.6875]
[54.25, -16.625, -5.0625]
[74.75, 22.0, 17.5]
[92.125, 70.0, 59.6875]
[120.5, 109.4375, 87.125]
[111.625, 127.75, 78.9375]
[113.5625, 140.75, 83.8125]
[97.5625, 147.8125, 99.25]
[50.1875, 150.8125, 104.375]
[20.8125, 152.125, 110.25]
[12.125, 149.0625, 111.625]
[20.375, 144.25, 111.25]
[18.0625, 133.4375, 111.9375]
[18.625, 120.25, 113.625]
[24.0625, 102.1875, 116.375]
[19.0, 88.125, 111.1875]
[6.0625, 83.0625, 96.375]
[-6.6875, 83.4375, 80.0625]
[-5.6875, 84.125, 65.0]
[-9.8125, 80.125, 50.625]
[-19.9375, 72.1875, 39.4375]
[-28.9375, 60.0625, 25.75]
[-30.5, 45.1875, 16.8125]
[-67.375, 268.875, 2.1875]
[-72.8125, 31.9375, 27.5625]
[-126.0, -14.125, 8.0]
[-40.25, -18.0, 7.9375]
[43.25, 7.375, -16.625]
[65.5, 5.3125, -22.4375]
[62.0, 7.0, -6.625]
[40.375, 2.1875, 3.375]
[11.75, -6.8125, 7.3125]
[-8.0, -16.125, 11.0]
[-11.625, -19.25, 8.5]
[-2.0625, -12.75, 5.875]
[15.0625, -5.8125, 7.0625]
[22.4375, -1.75, 8.5625]
[17.625, -5.375, 7.6875]
[14.0, -4.5625, 0.9375]
[19.9375, -2.6875, -3.1875]
[29.3125, 0.4375, -6.8125]
[39.9375, 2.9375, -7.125]
[49.25, 0.75, -5.625]
[52.8125, -3.0625, -4.375]
[47.875, -5.4375, -6.25]
[41.8125, -3.125, -9.625]
[31.625, -0.875, -9.0]
[24.25, 0.375, -5.1875]
[18.75, 1.375, -2.25]
[16.5, 1.3125, -0.1875]
[16.375, 1.9375, -3.375]
[13.0, -0.0625, -6.0625]
[11.0625, 0.6875, -5.3125]
[6.0625, 1.625, -3.4375]
[0.25, 3.25, -3.5]
[-4.4375, 3.9375, -3.125]
[-3.625, 3.3125, -4.875]
[-2.125, 4.8125, -7.5]
[2.125, 5.25, -9.625]
[5.3125, 5.8125, -10.625]
[4.8125, 4.9375, -8.625]
[-0.4375, 3.4375, -6.125]
[-8.0625, -0.75, -4.25]
[-10.625, -3.25, -4.4375]
[-7.9375, -2.875, -7.875]
[-5.5, -2.4375, -11.6875]
[-8.8125, -3.0625, -14.625]
[-19.0625, -5.3125, -16.6875]
[-30.75, -7.875, -22.25]
[-46.3125, -15.125, -31.1875]
[-61.625, -24.25, -40.5625]
[-88.375, -33.375, -47.75]
[-110.5, -42.5625, -50.3125]
[-248.625, -16.6875, -122.9375]
[-284.0625, -31.875, -57.375]
[-228.1875, -33.25, -61.3125]
[-166.875, -24.6875, -96.1875]
[-132.5, -4.25, -120.375]
[-61.3125, -2.3125, -113.625]
[-38.5, -5.8125, -86.4375]
[-61.5625, -15.9375, -71.75]
[-73.5, -21.625, -72.875]
[-66.625, -32.75, -75.8125]
[-49.5625, -50.25, -86.5625]
[-11.4375, -53.6875, -92.9375]
[10.4375, -45.4375, -93.1875]
[-21.8125, -38.1875, -79.0]
[-28.375, -24.0625, -45.375]
[-38.125, -4.375, -21.875]
[-47.3125, 12.1875, -33.3125]
[-36.25, 13.4375, -43.4375]
[-3.375, 2.6875, -48.25]
[14.8125, -8.75, -57.375]
[13.875, -15.0, -60.5625]
[7.5, -18.8125, -51.5]
[-3.9375, -19.5, -44.3125]
[-27.5, -11.75, -40.375]
[-46.4375, -12.4375, -29.375]
[-35.1875, -3.875, -24.6875]
[-7.9375, 18.1875, -22.8125]
[-7.5, 39.125, -8.875]
[-28.8125, 46.0625, 2.125]
[-48.0625, 44.25, 8.0625]
[-42.75, 38.75, 10.6875]
[-20.375, 26.5625, 13.25]
[-0.0625, 16.8125, 10.5]
[5.5625, 10.0625, 10.25]
[-0.5, 5.375, 10.0625]
[-7.9375, -2.4375, 5.625]
[-3.375, -7.3125, 2.1875]
[5.75, -5.8125, -3.5]
[6.1875, -4.9375, -4.9375]
[-3.375, -2.625, -3.125]
[-5.75, -1.0, 2.9375]
[-20.6875, 1.0, 4.0]
[-14.0, 5.8125, 1.0625]
[10.0625, 12.5625, 4.25]
[16.1875, 17.75, 8.0625]
[-3.1875, 12.5625, 6.6875]
[-17.25, 6.625, 1.3125]
[-15.125, 2.0, -4.6875]
[-1.8125, -5.4375, -6.625]
[7.125, -7.75, -5.875]
[-3.125, -6.8125, -1.75]
[-5.3125, -6.0, 4.6875]
[0.5, -2.8125, 2.9375]
[13.4375, 3.625, 0.8125]
[16.5, 8.4375, 3.625]
[7.4375, 8.5625, 1.1875]
[-1.8125, 4.6875, 0.375]
[-1.5625, 3.0625, -4.0]
[5.5625, 2.4375, -3.75]
[4.8125, 2.625, 3.125]
[3.3125, 4.25, 2.25]
[1.0625, 6.625, 0.6875]
[-1.75, 9.8125, 0.25]
[-6.625, 10.9375, -0.75]
[-9.9375, 9.0625, 2.3125]
[-10.5625, 7.375, 2.1875]
[1.5625, 1.3125, 8.1875]
[9.5625, -0.125, 6.875]
[0.5625, -0.125, 0.875]
[-3.0, -2.3125, 2.9375]
[-4.625, -3.8125, 4.8125]
[-4.6875, -7.875, 5.125]
[0.375, -10.75, 0.9375]
[4.0, -5.5625, -4.8125]
[7.0, -2.25, -3.1875]
[0.4375, 0.5625, -0.9375]
[-3.625, 2.125, 0.375]
[-3.625, -4.0, 6.3125]
[0.875, -1.5, -2.6875]
[6.4375, -0.3125, -3.0625]
[8.125, -0.375, -1.3125]
[4.8125, -1.0, -2.5625]
[0.0625, -2.875, -1.25]
[-1.9375, -3.1875, 0.9375]
[2.0625, -6.5, 2.0625]
[6.75, -6.3125, 0.875]
[10.5625, -4.3125, 0.3125]
[9.4375, -2.8125, -0.0625]
[1.0, -2.6875, -0.375]
[-6.1875, -3.4375, -2.0]
[-6.5, -6.75, -2.6875]
[-3.625, -9.75, 0.625]
[3.0625, -12.5625, 0.125]
[5.3125, -10.4375, -7.0]
[0.3125, -9.0625, -5.8125]
[-1.0, -9.5, -1.75]
[-4.6875, -11.1875, 0.4375]
[-5.0, -11.3125, 1.0]
[-1.875, -12.0625, 2.9375]
[0.25, -11.5625, -0.625]
[1.625, -8.625, -5.0]
[0.0625, -7.125, -4.1875]
[-6.1875, -5.625, -1.6875]
[-15.8125, -4.8125, -3.625]
[-21.6875, -9.6875, -3.6875]
[-9.25, -15.3125, -2.1875]
[-6.0625, -12.4375, -2.625]
[-11.0625, -11.25, 1.375]
[-6.125, -4.625, 4.25]
[5.5, 4.6875, 6.5]
[10.8125, 15.75, 11.9375]
[6.125, 26.625, 17.4375]
[-0.1875, 32.75, 23.125]
[-6.25, 35.6875, 24.4375]
[-5.125, 37.875, 23.5]
[3.0625, 39.6875, 24.0625]
[0.75, 47.3125, 24.875]
[-8.75, 51.0625, 27.4375]
[-15.9375, 50.625, 30.8125]
[-16.0625, 55.25, 29.5]
[-6.3125, 61.4375, 30.4375]
[-7.5, 70.0, 33.6875]
[-27.1875, 76.9375, 35.0]
[-33.625, 77.9375, 44.6875]
[-22.6875, 77.625, 51.625]
[-10.625, 82.125, 52.8125]
[-20.1875, 90.1875, 53.1875]
[-51.875, 95.5625, 58.25]
[-72.625, 96.25, 62.0]
[-73.9375, 102.25, 58.6875]
[-60.875, 105.75, 50.25]
[-55.4375, 109.9375, 49.875]
[-43.5, 108.625, 51.5625]
[-47.0, 100.0, 55.125]
[-49.3125, 95.5625, 54.5625]
[-51.375, 88.0, 44.8125]
[-37.8125, 76.875, 30.0]
[-19.125, 66.125, 22.9375]
[0.3125, 66.625, 31.5625]
[-0.375, 56.0, 34.125]
[-19.0625, 46.0, 32.1875]
[-25.9375, 34.5625, 23.5]
[-28.9375, 32.375, 29.125]
[-29.375, 31.8125, 33.9375]
[-24.4375, 31.625, 29.875]
[-16.0625, 32.4375, 24.6875]
[-13.4375, 30.1875, 19.5625]
[-21.4375, 31.5, 21.4375]
[-37.5, 30.8125, 23.25]
[-44.25, 25.0, 17.375]
[-31.0625, 9.625, 6.1875]
[-14.125, 0.6875, -6.625]
[-16.5, -0.5625, -10.3125]
[-12.25, 1.375, -16.0625]
[2.75, 10.25, -8.1875]
[0.9375, 14.6875, 3.25]
[-15.6875, 7.375, 12.25]
[-11.6875, -0.8125, 0.6875]
[-2.0625, 1.0625, -7.5]
[7.25, 2.875, -7.0]
[-3.875, 9.6875, 17.3125]
[-19.8125, 11.1875, 24.9375]
[-13.25, 13.5625, 14.25]
[11.875, 10.875, -5.0]
[17.0625, 1.6875, -8.9375]
[-3.125, -8.0, -0.25]
[-5.5625, -8.0, -0.5625]
[-0.5, -2.1875, -2.1875]
[11.875, -0.75, -8.625]
[19.375, 0.6875, -15.5625]
[9.0625, 1.4375, -14.8125]
[0.0, 0.625, -6.25]
[1.625, 0.625, -10.25]
[14.8125, 0.1875, -20.4375]
[18.0625, -1.4375, -27.0625]
[4.625, -2.625, -13.4375]
[2.9375, -2.0, 0.5]
[7.875, -1.0625, -2.0625]
[18.625, -3.125, -7.25]
[14.875, -5.5625, -6.625]
[9.3125, -5.75, -2.125]
[1.75, -4.5625, 0.5]
[4.375, -2.5625, 2.625]
[5.1875, -2.1875, -3.0]
[6.8125, -0.3125, -10.125]
[3.9375, -1.75, -5.25]
[2.375, -0.625, -2.5]
[-1.0, -0.5625, -5.0]
[6.6875, -2.4375, -5.4375]
[7.3125, -1.3125, -6.125]
[6.1875, -1.625, -9.25]
[1.375, -2.625, -7.6875]
[1.375, -1.625, -4.6875]
[5.3125, 0.75, -7.125]
[5.5, 1.9375, -11.3125]
[4.625, 1.9375, -7.3125]
[2.0625, 3.0, -4.875]
[2.5625, 1.9375, -1.875]
[2.875, 1.4375, -2.4375]
[4.625, 1.5625, -2.75]
[5.375, 1.5625, -1.75]
[4.1875, 2.0625, -1.4375]
[0.5625, 1.8125, 0.25]
[-1.0625, 1.4375, 0.5625]
[-0.75, 0.875, -1.25]
[-1.3125, 1.1875, -1.25]
[-0.9375, 2.9375, 1.0625]
[0.625, 1.0625, 4.3125]
[1.6875, -3.8125, 9.25]
[0.5625, -4.3125, 11.375]
[-11.875, 1.375, 6.5625]
[-18.0, 3.5, 3.625]
[-4.25, 3.5625, -3.4375]
[3.125, -2.375, -11.0]
[0.9375, -20.0, -16.6875]
[-40.75, -46.75, -10.1875]
[-77.625, -75.0, -10.375]
[-76.375, -88.375, -23.375]
[-44.0625, -90.625, -52.75]
[-25.5, -94.9375, -74.1875]
[-31.5625, -105.375, -76.6875]
[-64.4375, -116.125, -63.375]
[-69.0625, -125.3125, -52.75]
[-32.9375, -129.125, -54.0625]
[-1.5, -135.0625, -62.9375]
[8.8125, -131.4375, -61.1875]
[-3.875, -119.0, -42.5]
[-16.3125, -98.0, -24.4375]
[-22.375, -83.625, -15.875]
[-41.9375, -67.0625, -10.5625]
[-51.75, -42.6875, -5.3125]
[-36.8125, -28.5625, 1.4375]
[-4.625, -22.625, 3.9375]
[-4.125, -23.0625, 0.0625]
[-26.3125, -25.1875, 7.375]
[-34.5625, -21.4375, 15.75]
[-15.1875, -16.25, 15.0]
[3.1875, -16.3125, 11.3125]
[5.625, -15.0, 10.9375]
[-8.125, -9.6875, 14.0]
[-16.6875, 0.625, 13.25]
[-13.6875, 13.25, 10.0]
[-11.25, 14.125, 12.0625]
[-24.625, 14.75, 12.3125]
[-41.5625, 31.625, 11.3125]
[-45.25, 8.0625, 20.625]
[-31.8125, 19.375, 2.875]
[-57.4375, 9.6875, 18.0625]
[-41.375, 2.4375, 6.875]
[-65.375, -1.5, -5.0625]
[-57.8125, -9.3125, -8.4375]
[-62.625, -16.25, -4.375]
[-66.0625, -19.25, -4.625]
[-52.5625, -20.9375, -9.9375]
[-44.875, -24.625, -15.875]
[8.6875, -34.5625, -80.6875]
[182.3125, -11.625, -67.125]
[208.5625, -31.75, -78.3125]
[103.1875, -28.75, -24.6875]
[-6.375, -99.1875, 29.5]
[-99.75, -107.75, -57.9375]
[-72.5625, -60.5625, -44.75]
[-42.8125, -30.5625, -35.625]
[-28.3125, -4.5625, -14.25]
[-11.625, 22.5625, 7.0]
[7.3125, 32.9375, 19.5]
[14.625, 43.8125, 20.125]
[12.0625, 50.0625, 19.1875]
[16.625, 56.8125, 19.625]
[22.1875, 56.6875, 21.8125]
[14.3125, 48.5, 18.5]
[4.0, 33.5625, 7.25]
[-0.1875, 18.125, 0.4375]
[-2.3125, 5.375, -4.875]
[-11.1875, -2.8125, -8.4375]
[-20.5, -8.75, -9.0]
[-25.9375, -12.0625, -9.6875]
[-31.3125, 4.125, -10.375]
[-30.5625, 19.3125, 0.625]
[-24.1875, 36.125, 9.5625]
[-23.4375, 37.25, 7.25]
[-13.875, 20.75, -5.875]
[-13.0625, 6.9375, -19.1875]
[-11.375, -7.75, -29.5625]
[0.125, -21.3125, -36.875]
[9.0, -22.6875, -38.0625]
[-11.8125, -11.3125, -23.6875]
[-22.3125, -2.625, -7.0625]
[-15.5, 10.1875, -1.1875]
[-13.0, 21.1875, 1.0625]
[0.125, 29.125, -4.1875]
[-0.0625, 30.5625, -11.5625]
[-6.3125, 30.0625, -20.875]
[-0.375, 26.125, -28.0625]
[-4.5625, 35.125, -25.875]
[13.25, -21.0, -23.5]
[-10.0625, 68.5625, 39.0]
[-0.9375, 28.375, -0.0625]
[-1.4375, 19.4375, 5.6875]
[1.375, 17.3125, 13.8125]
[7.0, 9.0625, 20.375]
[-2.1875, 5.25, 16.4375]
[-5.125, 9.1875, 8.3125]
[1.3125, 11.5625, 1.625]
[-10.625, 11.1875, -0.625]
[-25.5, 12.8125, -0.4375]
[-23.875, 15.6875, 2.75]
[-17.875, 12.5625, -1.8125]
[-9.5625, 11.0625, -8.375]
[-6.3125, 11.4375, -8.3125]
[-4.125, 11.125, -6.25]
[-3.5, 9.1875, -5.75]
[1.875, 7.875, -7.5]
[9.4375, 5.375, -14.625]
[15.875, 5.6875, -20.3125]
[13.6875, 7.125, -17.9375]
[11.5625, 7.0625, -13.0]
[16.75, 3.75, -10.0]
[16.25, 0.625, -7.4375]
[3.375, -2.25, -8.75]
[0.75, -4.4375, -8.375]
[-0.3125, 1.1875, -9.75]
[3.875, 2.75, -8.8125]
[0.25, -13.625, -7.0]
[-2.6875, -0.75, -9.75]
[-3.625, 10.1875, -14.75]
[-4.625, 19.6875, -15.125]
[-6.625, 35.5625, -13.8125]
[-6.75, 52.5625, -6.375]
[-10.375, 54.875, -7.4375]
[1.5625, 68.6875, -1.625]
[-13.625, 65.4375, 5.5625]
[-27.125, 65.875, 11.1875]
[-38.8125, 67.6875, 8.6875]
[-50.875, 76.0, -6.625]
[-46.125, 69.9375, -9.6875]
[-32.875, 66.75, -13.0]
[-37.8125, 60.6875, -20.75]
[-47.0625, 55.75, -38.3125]
[-46.1875, 50.8125, -46.5]
[-23.5, 45.75, -61.1875]
[-12.75, 33.375, -64.25]
[-17.0625, 17.5, -61.375]
[-25.5625, 10.1875, -52.0625]
[-31.875, 6.5, -39.8125]
[-34.0, 8.0, -31.5625]
[-27.4375, 11.0625, -23.625]
[-21.9375, 13.625, -13.875]
[-24.625, 13.4375, -3.8125]
[-28.3125, 12.8125, -0.5]
[-24.875, 11.8125, -1.625]
[-18.5, 10.875, -0.375]
[-9.5, 8.75, -0.25]
[-1.5625, 6.5625, 1.25]
[-2.0625, 4.8125, 3.375]
[-6.375, 2.9375, 3.75]
[-7.4375, 1.4375, 2.375]
[-6.1875, 0.0625, 2.1875]
[-0.375, -0.4375, 4.625]
[-3.0625, -1.3125, 6.0]
[-6.3125, -3.3125, 3.6875]
[-3.625, -1.9375, -0.5625]
[0.75, -1.6875, -3.6875]
[1.125, -1.6875, -4.4375]
[-0.9375, -2.0, -3.75]
[-3.9375, -3.6875, -4.375]
[-4.125, -3.75, -5.9375]
[1.0625, -3.125, -4.25]
[2.25, -3.6875, -1.875]
[-0.3125, -2.9375, -0.5]
[-1.75, -1.25, 0.4375]
[-2.625, -0.125, 2.5625]
[-4.375, -2.5, 6.9375]
[-2.0, -3.4375, 3.9375]
[-1.625, -3.5625, -1.3125]
[-3.9375, -3.75, -4.9375]
[-4.6875, -4.3125, -8.0625]
[-1.75, -5.4375, -8.875]
[0.875, -7.125, -8.9375]
[1.875, -6.875, -9.625]
[-1.1875, -5.5625, -8.3125]
[-2.0625, -2.375, -7.6875]
[-2.0, -1.25, -4.5]
[-0.125, -1.0, 0.3125]
[2.5625, 2.25, 2.125]
[2.25, 4.75, 4.25]
[-1.75, 6.5625, 4.375]
[2.375, 7.375, 4.75]
[5.875, 7.0, 5.25]
[0.6875, 5.8125, 3.75]
[-1.125, 4.9375, 3.4375]
[-0.625, 3.1875, 2.5625]
[-0.25, 0.5, 1.8125]
[-4.9375, -2.6875, -0.9375]
[-6.1875, -2.625, -2.6875]
[0.625, -2.875, -3.75]
[3.125, -3.25, -5.625]
[-0.9375, -4.5, -4.4375]
[-3.0, -3.1875, -4.375]
[-0.25, -2.75, -3.8125]
[-2.625, -3.3125, -2.9375]
[-2.625, -2.625, -1.875]
[-2.9375, -0.1875, -1.4375]
[-4.875, 0.6875, -0.6875]
[-2.25, 0.125, 0.0]
[0.5, 1.875, -1.25]
[-2.375, 2.4375, -0.9375]
[-3.0625, 3.125, -0.875]
[-0.625, 2.75, -1.0625]
[-0.375, 2.0, -2.625]
[-1.875, 1.1875, -2.8125]
[-0.125, 0.125, -2.5625]
[0.6875, -0.6875, -1.875]
[1.3125, -0.4375, -1.4375]
[-0.9375, -0.4375, -0.875]
[4.9375, 0.5625, -1.0]
[5.5625, 1.25, 1.3125]
[2.25, 1.4375, 2.75]
[1.125, 3.75, 3.4375]
[-1.3125, 2.9375, 5.625]
[-8.0, 1.5625, 7.1875]
[-8.8125, 6.25, 10.3125]
[-11.375, 8.1875, 19.1875]
[-42.1875, -0.6875, 29.125]
[-72.6875, -13.5625, 45.5]
[-122.0, -11.0, 36.75]
[-125.375, 5.6875, 54.75]
[-70.375, -59.0625, -14.4375]
[56.3125, -29.0, -0.1875]
[193.5625, -12.0625, -5.3125]
[320.4375, 28.1875, -85.25]
[352.875, -6.0, -47.0625]
[276.5625, -46.5, -48.3125]
[220.375, -58.1875, -54.6875]
[180.4375, -82.625, -47.6875]
[177.4375, -110.8125, -38.5]
[186.3125, -122.5625, -50.9375]
[187.8125, -96.0, -81.375]
[178.375, -73.0, -76.9375]
[136.9375, -65.5625, -38.4375]
[62.6875, -60.0, -10.5]
[7.5625, -48.9375, -9.6875]
[14.0, -31.375, -15.9375]
[28.125, -14.5, -2.0]
[39.6875, -5.6875, 19.75]
[43.4375, -2.0625, 32.25]
[14.1875, 1.625, 28.0]
[-14.25, 0.25, 23.9375]
[-11.9375, -9.375, 22.6875]
[-10.0, -15.3125, 4.9375]
[-28.125, -22.6875, -10.3125]
[-30.4375, -30.0, -19.5625]
[-14.6875, -24.1875, -28.875]
[-9.75, -9.5, -35.9375]
[-6.75, -3.0, -25.625]
[-3.6875, -7.4375, -8.1875]
[-13.9375, -6.9375, -10.3125]
[-22.5, -5.5, -20.125]
[-3.125, -2.375, -21.625]
[18.75, 1.9375, -16.125]
[16.6875, 2.625, -10.5625]
[10.3125, -1.625, -5.375]
[4.0, -4.5625, -5.5]
[3.625, -3.4375, -8.875]
[14.5, 1.1875, -5.375]
[19.125, 2.0625, -0.75]
[18.6875, 0.0, -0.6875]
[15.125, -1.6875, -1.1875]
[12.25, -1.5, 4.125]
[12.25, 3.4375, 2.5625]
[8.6875, 5.75, 0.0625]
[2.8125, 2.5, 3.8125]
[1.3125, -0.0625, 4.0625]
[-0.1875, -1.875, 2.5]
[2.4375, 0.5625, -0.6875]
[-2.3125, -1.875, 0.8125]
[-1.8125, -3.3125, 0.875]
[-1.75, -3.5625, -0.1875]
[-4.5, -3.0625, -1.8125]
