[-0.8876953125, -0.294921875, 0.205078125]
[-0.86328125, -0.2646484375, 0.26416015625]
[-0.83837890625, -0.24658203125, -0.1826171875]
[-1.64990234375, -0.7216796875, 0.11865234375]
[-1.30615234375, -0.53076171875, -0.51708984375]
[-0.10107421875, -0.24560546875, 0.3154296875]
[-0.77392578125, -0.70947265625, 0.81689453125]
[-1.34375, -0.724609375, -0.494140625]
[-0.09765625, -0.57763671875, 0.0478515625]
[-0.40478515625, -0.95166015625, 0.763671875]
[-1.19873046875, -0.8310546875, -0.435546875]
[-0.18798828125, -0.55322265625, -0.2373046875]
[-0.5244140625, -0.81591796875, -0.1044921875]
[-0.47900390625, -0.876953125, 0.13818359375]
[-0.431640625, -0.78515625, 0.07470703125]
[-0.36328125, -0.81640625, 0.0712890625]
[-0.35546875, -0.96826171875, 0.0849609375]
[-0.45166015625, -1.01953125, 0.03466796875]
[-0.43017578125, -0.99169921875, 0.0703125]
[-0.36572265625, -0.86181640625, 0.099609375]
[-0.25537109375, -0.8486328125, 0.08203125]
[-0.283203125, -1.00244140625, 0.06005859375]
[-0.27001953125, -1.04150390625, 0.0009765625]
[-0.30810546875, -1.02783203125, 0.07177734375]
[-0.27734375, -0.955078125, 0.11767578125]
[-0.18505859375, -0.90185546875, 0.07177734375]
[-0.13671875, -0.97314453125, 0.0205078125]
[-0.14990234375, -1.07275390625, 0.05908203125]
[-0.1748046875, -1.0224609375, 0.04638671875]
[-0.109375, -0.97705078125, 0.03759765625]
[-0.05078125, -0.88916015625, 0.02880859375]
[-0.01318359375, -0.90380859375, -0.00390625]
[-0.05810546875, -1.04248046875, 0.001953125]
[-0.0771484375, -1.04052734375, 0.10791015625]
[-0.03759765625, -0.9912109375, 0.1005859375]
[0.05029296875, -0.9775390625, 0.03466796875]
[0.0341796875, -1.02734375, -0.02099609375]
[-0.10693359375, -1.005859375, -0.0361328125]
[-0.115234375, -1.01611328125, 0.09033203125]
[-0.0751953125, -1.12109375, 0.16357421875]
[-0.072265625, -1.18505859375, 0.13525390625]
[-0.20263671875, -1.20751953125, 0.05029296875]
[-0.1181640625, -1.025390625, 0.03076171875]
[-0.06103515625, -0.9140625, 0.0712890625]
[-0.05322265625, -1.16064453125, 0.0625]
[-0.115234375, -1.25830078125, 0.06005859375]
[-0.0927734375, -1.15625, -0.00244140625]
[-0.1123046875, -0.98046875, 0.03466796875]
[-0.0263671875, -0.90185546875, 0.044921875]
[-0.01708984375, -1.14453125, 0.0322265625]
[-0.06884765625, -1.1796875, 0.01416015625]
[-0.06201171875, -1.10400390625, 0.0126953125]
[-0.048828125, -0.86474609375, -0.03125]
[0.064453125, -0.939453125, -0.02978515625]
[-0.02978515625, -1.09375, 0.00927734375]
[-0.1162109375, -1.1015625, -0.00048828125]
[-0.0908203125, -0.9375, -0.0068359375]
[-0.0751953125, -0.9560546875, -0.03369140625]
[-0.13330078125, -1.12841796875, -0.04638671875]
[-0.17919921875, -1.25439453125, -0.009765625]
[-0.19140625, -1.0751953125, -0.029296875]
[-0.12353515625, -0.896484375, -0.00927734375]
[-0.1650390625, -1.02880859375, -0.01611328125]
[-0.0830078125, -1.08837890625, -0.09814453125]
[-0.048828125, -1.109375, -0.04296875]
[-0.06591796875, -1.05078125, 0.00634765625]
[-0.11767578125, -1.16357421875, -0.0302734375]
[-0.099609375, -1.14501953125, -0.03173828125]
[-0.06591796875, -1.076171875, -0.0244140625]
[-0.005859375, -1.07861328125, -0.0166015625]
[0.025390625, -1.13525390625, -0.0185546875]
[0.06298828125, -1.09423828125, -0.02197265625]
[0.03564453125, -1.0751953125, -0.0498046875]
[-0.00537109375, -1.13525390625, -0.06396484375]
[0.04345703125, -1.18408203125, -0.02294921875]
[0.01318359375, -1.158203125, 0.009765625]
[-0.0146484375, -1.14111328125, 0.01953125]
[-0.04248046875, -1.16552734375, 0.0]
[0.01123046875, -1.07373046875, -0.0048828125]
[-0.0166015625, -1.11962890625, 0.03076171875]
[-0.0693359375, -1.1416015625, 0.017578125]
[-0.10693359375, -1.08740234375, 0.01806640625]
[-0.09228515625, -1.00830078125, 0.00927734375]
[-0.14892578125, -0.984375, 0.04931640625]
[-0.19775390625, -1.0400390625, 0.06103515625]
[-0.20361328125, -1.00732421875, 0.03662109375]
[-0.2509765625, -0.97265625, 0.01806640625]
[-0.31494140625, -0.994140625, 0.0537109375]
[-0.32861328125, -0.8955078125, 0.08447265625]
[-0.38525390625, -0.9296875, 0.06982421875]
[-0.43359375, -0.93701171875, 0.08056640625]
[-0.484375, -0.94384765625, 0.08544921875]
[-0.45458984375, -0.86962890625, 0.10107421875]
[-0.52685546875, -0.8095703125, 0.13671875]
[-0.56689453125, -0.83740234375, 0.140625]
[-0.56494140625, -0.81689453125, 0.134765625]
[-0.61669921875, -0.78271484375, 0.138671875]
[-0.6376953125, -0.67822265625, 0.17822265625]
[-0.62890625, -0.66064453125, 0.2109375]
[-0.61669921875, -0.63671875, 0.17041015625]
[-0.697265625, -0.6259765625, 0.158203125]
[-0.71435546875, -0.5732421875, 0.21435546875]
[-0.67578125, -0.46533203125, 0.25390625]
[-0.69580078125, -0.46630859375, 0.2783203125]
[-0.76220703125, -0.494140625, 0.287109375]
[-0.79736328125, -0.4716796875, 0.2509765625]
[-0.716796875, -0.3330078125, 0.2470703125]
[-0.75341796875, -0.251953125, 0.29541015625]
[-0.787109375, -0.30419921875, 0.310546875]
[-0.79296875, -0.33203125, 0.32666015625]
[-0.8525390625, -0.30322265625, 0.3046875]
[-0.80615234375, -0.13916015625, 0.31787109375]
[-0.84619140625, -0.11474609375, 0.3564453125]
[-0.86669921875, -0.17529296875, 0.3447265625]
[-0.9013671875, -0.2099609375, 0.32666015625]
[-0.9140625, -0.15869140625, 0.30908203125]
[-0.87451171875, 0.00048828125, 0.337890625]
[-0.9208984375, 0.029296875, 0.39306640625]
[-0.9501953125, -0.048828125, 0.3681640625]
[-0.9326171875, -0.1015625, 0.33984375]
[-0.9794921875, 0.0048828125, 0.34912109375]
[-0.89892578125, 0.10791015625, 0.3505859375]
[-0.93896484375, 0.10693359375, 0.35546875]
[-0.97314453125, 0.02001953125, 0.37109375]
[-0.90869140625, 0.03076171875, 0.35302734375]
[-0.8935546875, 0.13427734375, 0.3115234375]
[-0.9521484375, 0.216796875, 0.3212890625]
[-0.91455078125, 0.1708984375, 0.31689453125]
[-0.89111328125, 0.17431640625, 0.34228515625]
[-0.9091796875, 0.1904296875, 0.333984375]
[-0.88427734375, 0.2060546875, 0.2939453125]
[-0.86181640625, 0.2255859375, 0.32666015625]
[-0.939453125, 0.23828125, 0.3564453125]
[-0.9677734375, 0.2294921875, 0.34130859375]
[-0.9208984375, 0.24169921875, 0.30810546875]
[-0.91943359375, 0.25732421875, 0.30859375]
[-0.90625, 0.22216796875, 0.34814453125]
[-0.916015625, 0.1767578125, 0.330078125]
[-0.94287109375, 0.24267578125, 0.33251953125]
[-0.99462890625, 0.30615234375, 0.32763671875]
[-1.0087890625, 0.2802734375, 0.33935546875]
[-0.9921875, 0.18408203125, 0.29736328125]
[-1.00341796875, 0.2021484375, 0.3251953125]
[-1.0732421875, 0.248046875, 0.35107421875]
[-1.03662109375, 0.26123046875, 0.32373046875]
[-1.02685546875, 0.20751953125, 0.32568359375]
[-1.0703125, 0.20751953125, 0.326171875]
[-1.00830078125, 0.2158203125, 0.29248046875]
[-0.93994140625, 0.189453125, 0.2802734375]
[-1.01806640625, 0.16357421875, 0.30078125]
[-1.064453125, 0.08984375, 0.2275390625]
[-0.9716796875, 0.07861328125, 0.20263671875]
[-0.986328125, 0.138671875, 0.19384765625]
[-0.99951171875, 0.158203125, 0.23583984375]
[-1.0078125, 0.0439453125, 0.2568359375]
[-1.03759765625, -0.0068359375, 0.19482421875]
[-1.03173828125, 0.0068359375, 0.1787109375]
[-1.03125, 0.06787109375, 0.1689453125]
[-1.01513671875, 0.0693359375, 0.18359375]
[-1.01806640625, -0.05908203125, 0.216796875]
[-1.0556640625, -0.10693359375, 0.177734375]
[-1.02197265625, -0.06982421875, 0.17529296875]
[-0.99755859375, 0.0576171875, 0.16064453125]
[-1.01513671875, -0.017578125, 0.22705078125]
[-1.02294921875, -0.13671875, 0.1689453125]
[-0.9912109375, -0.17578125, 0.154296875]
[-1.0107421875, -0.109375, 0.1640625]
[-0.9775390625, -0.06640625, 0.169921875]
[-0.9404296875, -0.1474609375, 0.22900390625]
[-1.0224609375, -0.19775390625, 0.16015625]
[-0.9921875, -0.26123046875, 0.11474609375]
[-0.9501953125, -0.2197265625, 0.11328125]
[-0.92724609375, -0.189453125, 0.1279296875]
[-0.94873046875, -0.28076171875, 0.19482421875]
[-1.0234375, -0.365234375, 0.12451171875]
[-0.93212890625, -0.39892578125, 0.09814453125]
[-0.921875, -0.31103515625, 0.12109375]
[-0.90234375, -0.3271484375, 0.13671875]
[-0.90185546875, -0.43017578125, 0.13134765625]
[-0.91064453125, -0.52001953125, 0.08984375]
[-0.8681640625, -0.51904296875, 0.08349609375]
[-0.8388671875, -0.50048828125, 0.08642578125]
[-0.79052734375, -0.52001953125, 0.1337890625]
[-0.7939453125, -0.56787109375, 0.02392578125]
[-0.72900390625, -0.71728515625, 0.0302734375]
[-0.68896484375, -0.72265625, 0.03125]
[-0.61181640625, -0.66015625, 0.02001953125]
[-0.64501953125, -0.734375, 0.03857421875]
[-0.66552734375, -0.76416015625, -0.02001953125]
[-0.53857421875, -0.78515625, -0.02490234375]
[-0.49267578125, -0.76416015625, 0.005859375]
[-0.50439453125, -0.8349609375, -0.0068359375]
[-0.513671875, -0.89453125, -0.00244140625]
[-0.4912109375, -0.87255859375, 0.02294921875]
[-0.44921875, -0.77197265625, -0.009765625]
[-0.35791015625, -0.80078125, -0.041015625]
[-0.38671875, -0.94921875, 0.0]
[-0.35986328125, -1.0224609375, 0.0166015625]
[-0.35498046875, -0.98046875, 0.0322265625]
[-0.310546875, -0.90869140625, 0.033203125]
[-0.259765625, -0.9404296875, 0.07275390625]
[-0.2451171875, -0.984375, 0.0185546875]
[-0.224609375, -1.013671875, -0.0048828125]
[-0.24267578125, -1.048828125, 0.0390625]
[-0.17041015625, -1.033203125, 0.04296875]
[-0.0966796875, -1.0498046875, 0.015625]
[-0.0947265625, -1.0625, 0.033203125]
[-0.20703125, -1.0390625, 0.1181640625]
[-0.22802734375, -0.9599609375, 0.203125]
[-0.1181640625, -0.93896484375, 0.22802734375]
[-0.0810546875, -0.9599609375, 0.21826171875]
[-0.14794921875, -1.0703125, 0.1728515625]
[-0.1630859375, -1.08642578125, 0.18115234375]
[-0.0869140625, -1.04931640625, 0.181640625]
[-0.02587890625, -0.96923828125, 0.29541015625]
[-0.078125, -0.982421875, 0.28076171875]
[-0.09619140625, -0.97607421875, 0.28076171875]
[-0.072265625, -1.04248046875, 0.29541015625]
[-0.04443359375, -1.13720703125, 0.29443359375]
[0.00439453125, -1.060546875, 0.30078125]
[0.05517578125, -0.98583984375, 0.33984375]
[0.06201171875, -0.97021484375, 0.3720703125]
[0.0263671875, -1.0380859375, 0.3720703125]
[0.02685546875, -1.07958984375, 0.3515625]
[0.06689453125, -1.017578125, 0.3662109375]
[0.1015625, -0.984375, 0.37548828125]
[0.15185546875, -0.93505859375, 0.40625]
[0.119140625, -0.9248046875, 0.447265625]
[0.06591796875, -0.90771484375, 0.4638671875]
[0.10302734375, -0.9072265625, 0.48193359375]
[0.15869140625, -0.89599609375, 0.4833984375]
[0.18505859375, -0.94140625, 0.466796875]
[0.12841796875, -0.93408203125, 0.4658203125]
[0.046875, -0.91796875, 0.46337890625]
[0.060546875, -0.9052734375, 0.48095703125]
[0.09716796875, -0.90478515625, 0.5224609375]
[0.1162109375, -0.951171875, 0.53759765625]
[0.125, -0.88037109375, 0.4921875]
[0.1416015625, -0.87158203125, 0.49560546875]
[0.10009765625, -0.86572265625, 0.53466796875]
[0.11181640625, -0.83349609375, 0.57275390625]
[0.15234375, -0.81982421875, 0.5869140625]
[0.1787109375, -0.802734375, 0.60546875]
[0.18359375, -0.82080078125, 0.63671875]
[0.16943359375, -0.84423828125, 0.6591796875]
[0.181640625, -0.81396484375, 0.7001953125]
[0.23193359375, -0.74951171875, 0.6787109375]
[0.255859375, -0.77294921875, 0.666015625]
[0.21484375, -0.8212890625, 0.642578125]
[0.17578125, -0.88818359375, 0.599609375]
[0.18115234375, -0.88330078125, 0.61572265625]
[0.16357421875, -0.853515625, 0.626953125]
[0.13818359375, -0.82275390625, 0.64013671875]
[0.15087890625, -0.7802734375, 0.60595703125]
[0.14306640625, -0.81982421875, 0.59765625]
[0.16796875, -0.85107421875, 0.59814453125]
[0.15234375, -0.85498046875, 0.58642578125]
[0.14599609375, -0.83251953125, 0.5751953125]
[0.1591796875, -0.83935546875, 0.5791015625]
[0.15234375, -0.845703125, 0.5673828125]
[0.1552734375, -0.8642578125, 0.54931640625]
[0.18310546875, -0.8671875, 0.54541015625]
[0.16357421875, -0.84228515625, 0.54931640625]
[0.1201171875, -0.84130859375, 0.59033203125]
[0.142578125, -0.81982421875, 0.57177734375]
[0.16748046875, -0.88134765625, 0.57177734375]
[0.15673828125, -0.88330078125, 0.57373046875]
[-0.02685546875, -1.01171875, -0.017578125]
[0.00732421875, -1.00244140625, -0.046875]
[0.01025390625, -0.95947265625, -0.01708984375]
[0.13330078125, -0.86474609375, -0.32421875]
[0.2119140625, -1.06396484375, 0.60400390625]
[-0.2197265625, -1.16357421875, 0.44921875]
[-0.67724609375, -1.0693359375, -0.6689453125]
[0.56591796875, -0.74658203125, -0.0693359375]
[0.14404296875, -1.08447265625, 0.68408203125]
[-0.77001953125, -1.162109375, -0.5205078125]
[0.294921875, -0.83544921875, -0.3251953125]
[0.36669921875, -1.05712890625, 0.72509765625]
[-0.8271484375, -1.30615234375, -0.158203125]
[0.12646484375, -1.09619140625, 0.11083984375]
[-0.111328125, -1.15234375, -0.06201171875]
[-0.1298828125, -1.18505859375, -0.00244140625]
[-0.119140625, -1.14697265625, -0.001953125]
[-0.095703125, -1.08984375, 0.00390625]
[-0.08056640625, -1.07958984375, 0.01318359375]
[-0.0869140625, -1.04736328125, 0.01171875]
[-0.1025390625, -1.01953125, 0.02978515625]
[-0.1181640625, -1.03125, 0.02880859375]
[-0.14111328125, -1.02880859375, 0.00341796875]
[-0.13671875, -0.97119140625, 0.013671875]
[-0.15869140625, -0.97412109375, 0.01904296875]
[-0.17431640625, -1.0244140625, 0.046875]
[-0.2177734375, -1.07421875, 0.03515625]
[-0.224609375, -1.04931640625, 0.03955078125]
[-0.2255859375, -0.99609375, 0.04736328125]
[-0.2548828125, -1.03759765625, 0.04296875]
[-0.2724609375, -1.05517578125, 0.01513671875]
[-0.28125, -1.025390625, 0.04248046875]
[-0.29052734375, -0.98828125, 0.0625]
[-0.314453125, -0.9912109375, 0.083984375]
[-0.33837890625, -1.015625, 0.083984375]
[-0.37548828125, -1.01171875, 0.0556640625]
[-0.40966796875, -0.9423828125, 0.06396484375]
[-0.42626953125, -0.89892578125, 0.1171875]
[-0.44140625, -0.9326171875, 0.12548828125]
[-0.4560546875, -0.9482421875, 0.11083984375]
[-0.48095703125, -0.9208984375, 0.13818359375]
[-0.50390625, -0.8876953125, 0.1484375]
[-0.51953125, -0.83837890625, 0.13427734375]
[-0.5390625, -0.8369140625, 0.1484375]
[-0.55859375, -0.84716796875, 0.1669921875]
[-0.5732421875, -0.8095703125, 0.1708984375]
[-0.60986328125, -0.76708984375, 0.1826171875]
[-0.62841796875, -0.751953125, 0.20556640625]
[-0.619140625, -0.7587890625, 0.220703125]
[-0.646484375, -0.7265625, 0.21484375]
[-0.69580078125, -0.69140625, 0.2373046875]
[-0.72412109375, -0.6591796875, 0.23828125]
[-0.71142578125, -0.642578125, 0.24267578125]
[-0.71533203125, -0.6181640625, 0.23876953125]
[-0.748046875, -0.630859375, 0.24609375]
[-0.76806640625, -0.61669921875, 0.275390625]
[-0.7744140625, -0.54052734375, 0.28369140625]
[-0.7734375, -0.490234375, 0.3037109375]
[-0.78466796875, -0.533203125, 0.30224609375]
[-0.814453125, -0.54541015625, 0.314453125]
[-0.82958984375, -0.49658203125, 0.3310546875]
[-0.82080078125, -0.42333984375, 0.330078125]
[-0.82666015625, -0.38671875, 0.3408203125]
[-0.81884765625, -0.43115234375, 0.34375]
[-0.85205078125, -0.4482421875, 0.3330078125]
[-0.8623046875, -0.37255859375, 0.33837890625]
[-0.8818359375, -0.341796875, 0.35498046875]
[-0.85302734375, -0.3330078125, 0.34619140625]
[-0.85888671875, -0.30419921875, 0.3515625]
[-0.89404296875, -0.29052734375, 0.35498046875]
[-0.90771484375, -0.29150390625, 0.37548828125]
[-0.8955078125, -0.23095703125, 0.37109375]
[-0.8955078125, -0.203125, 0.36328125]
[-0.9345703125, -0.2158203125, 0.369140625]
[-0.94775390625, -0.21630859375, 0.361328125]
[-0.93603515625, -0.20947265625, 0.37939453125]
[-0.908203125, -0.134765625, 0.39013671875]
[-0.9248046875, -0.10986328125, 0.38720703125]
[-0.93017578125, -0.13330078125, 0.3818359375]
[-0.943359375, -0.11279296875, 0.37109375]
[-0.93603515625, -0.08984375, 0.37109375]
[-0.9130859375, -0.044921875, 0.37890625]
[-0.939453125, -0.02978515625, 0.38037109375]
[-0.93017578125, -0.02978515625, 0.38720703125]
[-0.93310546875, -0.009765625, 0.38623046875]
[-0.92138671875, -0.0078125, 0.39013671875]
[-0.92333984375, -0.00341796875, 0.375]
[-0.931640625, -0.001953125, 0.38330078125]
[-0.94140625, 0.0234375, 0.4013671875]
[-0.93017578125, 0.03515625, 0.373046875]
[-0.923828125, 0.04150390625, 0.3671875]
[-0.93408203125, 0.06201171875, 0.37548828125]
[-0.93017578125, 0.06982421875, 0.3857421875]
[-0.9404296875, 0.0419921875, 0.40087890625]
[-0.9482421875, 0.04296875, 0.40478515625]
[-0.95166015625, 0.0888671875, 0.39599609375]
[-0.9580078125, 0.1337890625, 0.39599609375]
[-0.95556640625, 0.12451171875, 0.39794921875]
[-0.96337890625, 0.091796875, 0.38720703125]
[-0.958984375, 0.0625, 0.40185546875]
[-0.953125, 0.087890625, 0.39208984375]
[-0.94970703125, 0.14404296875, 0.37060546875]
[-0.93408203125, 0.13720703125, 0.3896484375]
[-0.94677734375, 0.1162109375, 0.39111328125]
[-0.97412109375, 0.1064453125, 0.3857421875]
[-0.95263671875, 0.10302734375, 0.3876953125]
[-0.90283203125, 0.12451171875, 0.3701171875]
[-0.92919921875, 0.11962890625, 0.37890625]
[-0.93212890625, 0.11181640625, 0.3701171875]
[-0.91064453125, 0.1064453125, 0.37060546875]
[-0.962890625, 0.11328125, 0.3974609375]
[-0.93603515625, 0.111328125, 0.408203125]
[-0.89501953125, 0.10791015625, 0.376953125]
[-0.919921875, 0.1142578125, 0.38818359375]
[-0.94580078125, 0.1171875, 0.40234375]
[-0.98388671875, 0.14599609375, 0.37841796875]
[-0.9677734375, 0.1142578125, 0.3642578125]
[-0.955078125, 0.1357421875, 0.388671875]
[-0.9697265625, 0.189453125, 0.3662109375]
[-0.96826171875, 0.18310546875, 0.37109375]
[-0.99072265625, 0.15576171875, 0.36474609375]
[-0.986328125, 0.162109375, 0.34912109375]
[-0.97412109375, 0.158203125, 0.33154296875]
[-0.947265625, 0.1884765625, 0.32861328125]
[-0.97607421875, 0.18115234375, 0.3466796875]
[-0.98828125, 0.1259765625, 0.3271484375]
[-0.9462890625, 0.123046875, 0.30810546875]
[-0.94287109375, 0.14990234375, 0.3046875]
[-0.9599609375, 0.138671875, 0.32177734375]
[-0.9541015625, 0.0908203125, 0.337890625]
[-0.97021484375, 0.05517578125, 0.34326171875]
[-0.99072265625, 0.08984375, 0.33447265625]
[-0.98681640625, 0.123046875, 0.3134765625]
[-0.9814453125, 0.1005859375, 0.31298828125]
[-0.9892578125, 0.04736328125, 0.32568359375]
[-0.97607421875, 0.0302734375, 0.33154296875]
[-1.02197265625, 0.0498046875, 0.3095703125]
[-0.99365234375, 0.060546875, 0.310546875]
[-0.97607421875, 0.0693359375, 0.3134765625]
[-0.9833984375, 0.04345703125, 0.35302734375]
[-0.99951171875, 0.01123046875, 0.33984375]
[-0.99365234375, 0.01953125, 0.3076171875]
[-0.97509765625, 0.0419921875, 0.29638671875]
[-0.9853515625, 0.0576171875, 0.3037109375]
[-0.9775390625, 0.0439453125, 0.30859375]
[-0.978515625, 0.03076171875, 0.2841796875]
[-0.96826171875, 0.02099609375, 0.28076171875]
[-0.9775390625, 0.041015625, 0.27001953125]
[-0.98193359375, 0.04443359375, 0.2900390625]
[-0.97998046875, 0.0087890625, 0.30322265625]
[-0.96875, 0.01025390625, 0.298828125]
[-0.99072265625, 0.01171875, 0.30859375]
[-1.01220703125, 0.0029296875, 0.3134765625]
[-1.005859375, 0.00537109375, 0.32470703125]